# Pulseq sequence file
# Created by PyPulseq

[VERSION]
major 1
minor 4
revision 0

[DEFINITIONS]
AdcRasterTime 1e-07 
BlockDurationRaster 1e-05 
EPI 1 
FOV 0.26 0.26 0.005 
GradientRasterTime 1e-05 
Name YARRA 
RadiofrequencyRasterTime 1e-06 
TotalDuration 4.08898 

# Format of blocks:
# NUM DUR RF  GX  GY  GZ  ADC  EXT
[BLOCKS]
  1 276   1   0   0   1  0  0
  2  52   0   0   0   2  0  0
  3 2542   0   0   0   0  0  0
  4 130   0   3   3   3  0  0
  5 276   2   0   0   1  0  0
  6 130   0   3   3   3  0  0
  7 196   0   0   0   0  0  0
  8  20   0   4   5   0  0  0
  9  78   0   6   0   0  1  0
 10   4   0   0   7   0  0  0
 11  78   0   8   0   0  2  0
 12   4   0   0   7   0  0  0
 13  78   0   6   0   0  1  0
 14   4   0   0   7   0  0  0
 15  78   0   8   0   0  2  0
 16   4   0   0   7   0  0  0
 17  78   0   6   0   0  1  0
 18   4   0   0   7   0  0  0
 19  78   0   8   0   0  2  0
 20   4   0   0   7   0  0  0
 21  78   0   6   0   0  1  0
 22   4   0   0   7   0  0  0
 23  78   0   8   0   0  2  0
 24   4   0   0   7   0  0  0
 25  78   0   6   0   0  1  0
 26   4   0   0   7   0  0  0
 27  78   0   8   0   0  2  0
 28   4   0   0   7   0  0  0
 29  78   0   6   0   0  1  0
 30   4   0   0   7   0  0  0
 31  78   0   8   0   0  2  0
 32   4   0   0   7   0  0  0
 33  78   0   6   0   0  1  0
 34   4   0   0   7   0  0  0
 35  78   0   8   0   0  2  0
 36   4   0   0   7   0  0  0
 37  78   0   6   0   0  1  0
 38   4   0   0   7   0  0  0
 39  78   0   8   0   0  2  0
 40   4   0   0   7   0  0  0
 41  78   0   6   0   0  1  0
 42   4   0   0   7   0  0  0
 43  78   0   8   0   0  2  0
 44   4   0   0   7   0  0  0
 45  78   0   6   0   0  1  0
 46   4   0   0   7   0  0  0
 47  78   0   8   0   0  2  0
 48   4   0   0   7   0  0  0
 49  78   0   6   0   0  1  0
 50   4   0   0   7   0  0  0
 51  78   0   8   0   0  2  0
 52   4   0   0   7   0  0  0
 53  78   0   6   0   0  1  0
 54   4   0   0   7   0  0  0
 55  78   0   8   0   0  2  0
 56   4   0   0   7   0  0  0
 57  78   0   6   0   0  1  0
 58   4   0   0   7   0  0  0
 59  78   0   8   0   0  2  0
 60   4   0   0   7   0  0  0
 61  78   0   6   0   0  1  0
 62   4   0   0   7   0  0  0
 63  78   0   8   0   0  2  0
 64   4   0   0   7   0  0  0
 65  78   0   6   0   0  1  0
 66   4   0   0   7   0  0  0
 67  78   0   8   0   0  2  0
 68   4   0   0   7   0  0  0
 69  78   0   6   0   0  1  0
 70   4   0   0   7   0  0  0
 71  78   0   8   0   0  2  0
 72   4   0   0   7   0  0  0
 73  78   0   6   0   0  1  0
 74   4   0   0   7   0  0  0
 75  78   0   8   0   0  2  0
 76   4   0   0   7   0  0  0
 77  78   0   6   0   0  1  0
 78   4   0   0   7   0  0  0
 79  78   0   8   0   0  2  0
 80   4   0   0   7   0  0  0
 81  78   0   6   0   0  1  0
 82   4   0   0   7   0  0  0
 83  78   0   8   0   0  2  0
 84   4   0   0   7   0  0  0
 85  78   0   6   0   0  1  0
 86   4   0   0   7   0  0  0
 87  78   0   8   0   0  2  0
 88   4   0   0   7   0  0  0
 89  78   0   6   0   0  1  0
 90   4   0   0   7   0  0  0
 91  78   0   8   0   0  2  0
 92   4   0   0   7   0  0  0
 93  78   0   6   0   0  1  0
 94   4   0   0   7   0  0  0
 95  78   0   8   0   0  2  0
 96   4   0   0   7   0  0  0
 97  78   0   6   0   0  1  0
 98   4   0   0   7   0  0  0
 99  78   0   8   0   0  2  0
100   4   0   0   7   0  0  0
101  78   0   6   0   0  1  0
102   4   0   0   7   0  0  0
103  78   0   8   0   0  2  0
104   4   0   0   7   0  0  0
105  78   0   6   0   0  1  0
106   4   0   0   7   0  0  0
107  78   0   8   0   0  2  0
108   4   0   0   7   0  0  0
109  78   0   6   0   0  1  0
110   4   0   0   7   0  0  0
111  78   0   8   0   0  2  0
112   4   0   0   7   0  0  0
113  78   0   6   0   0  1  0
114   4   0   0   7   0  0  0
115  78   0   8   0   0  2  0
116   4   0   0   7   0  0  0
117  78   0   6   0   0  1  0
118   4   0   0   7   0  0  0
119  78   0   8   0   0  2  0
120   4   0   0   7   0  0  0
121  78   0   6   0   0  1  0
122   4   0   0   7   0  0  0
123  78   0   8   0   0  2  0
124   4   0   0   7   0  0  0
125  78   0   6   0   0  1  0
126   4   0   0   7   0  0  0
127  78   0   8   0   0  2  0
128   4   0   0   7   0  0  0
129  78   0   6   0   0  1  0
130   4   0   0   7   0  0  0
131  78   0   8   0   0  2  0
132   4   0   0   7   0  0  0
133  78   0   6   0   0  1  0
134   4   0   0   7   0  0  0
135  78   0   8   0   0  2  0
136  32   0   9  10   0  0  0
137 130   0   0   0   3  0  0
138 399870   0   0   0   0  0  0

# Format of RF events:
# id amplitude mag_id phase_id time_shape_id delay freq phase
# ..        Hz   ....     ....          ....    us   Hz   rad
[RF]
1       342.29 2 3 4 100 0 0
2      895.738 7 3 4 100 0 0

# Format of arbitrary gradients:
#   time_shape_id of 0 means default timing (stepping with grad_raster starting at 1/2 of grad_raster)
# id amplitude amp_shape_id time_shape_id delay
# ..      Hz/m       ..         ..          us
[GRADIENTS]
1       210756 1 0 0
2      -934565 5 0 0
3       930307 6 0 0
4      -768517 8 0 0
5      -769267 9 0 0
6       384633 10 0 0
7       192317 11 0 0
8      -384633 10 0 0
9       768517 8 0 0
10       807730 12 0 0

# Format of ADC events:
# id num dwell delay freq phase
# ..  ..    ns    us   Hz   rad
[ADC]
1 64 10000 70 0 0
2 64 10000 69 0 0

# Sequence Shapes
[SHAPES]

shape_id 1
num_samples 276
0
0.1
0.1
8
0
0
253
-0.1
-0.1
8

shape_id 2
num_samples 128
3.11854168e-18
0.00127709713
0.00263619803
0.00412096129
0.00577427533
0.00763644759
0.00974335716
0.0121246124
0.0148017555
0.0177865559
0.0210794356
0.0246680655
0.0285261709
0.0326125821
0.0368705593
0.0412274199
0.0455944881
0.049867383
0.0539266529
0.0576387606
0.060857414
0.0634252303
0.0651757189
0.0659355557
0.0655271198
0.0637712562
0.0604902216
0.0555107692
0.0486673194
0.0398051656
0.028783659
0.0154793152
0.00021121304
0.018368353
0.0390470728
0.0622746373
0.0880487054
0.116335811
0.147070264
0.180153504
0.215453928
0.252807202
0.292017081
0.332856714
0.375070447
0.418376095
0.462467653
0.507018435
0.551684572
0.596108847
0.639924798
0.682761038
0.72424573
0.764011151
0.801698272
0.836961294
0.869472065
0.898924318
0.925037648
0.947561196
0.96627695
0.981002636
0.991594142
0.997947446
1
0.997731574
0.991164526
0.9803635
0.965434562
0.946523782
0.923815282
0.897528787
0.867916719
0.835260863
0.799868678
0.762069301
0.722209299
0.680648243
0.637754172
0.593899008
0.549453996
0.504785237
0.460249377
0.416189514
0.372931381
0.330779861
0.290015875
0.250893686
0.213638654
0.178445456
0.145476804
0.114862652
0.08669991
0.0610526363
0.0379527113
0.0174009566
0.000631326021
0.0162004336
0.0293880021
0.0402984533
0.0490562018
0.0558026742
0.0606931964
0.0638938077
0.0655780545
0.0659238229
0.0651102599
0.0633148353
0.06071059
0.0574636108
0.0537307703
0.0496577599
0.0453774413
0.0410085329
0.0366546428
0.0324036509
0.028327439
0.0244819565
0.0209076103
0.017629953
0.0146606458
0.0119986645
0.00963171233
0.00753780233
0.00568696944
0.00404306915
0.00256562126
0.00121165629

shape_id 3
num_samples 128
0
0
126

shape_id 4
num_samples 128
10
20
20
125

shape_id 5
num_samples 52
0
0.0455
0.0454
0.0455
0.0454
0.0455
0.0454
0.0455
0.0454
0.0455
0.0454
0.0455
0.0455
0
0.0454
0.0455
0.0454
0.0455
0.0454
0.0455
0.0454
0.0455
0.0454
0.0455
0
0
5
-0.0455
-0.0454
-0.0455
-0.0454
-0.0455
-0.0454
-0.0455
-0.0454
-0.0455
-0.0454
-0.0455
-0.0455
0
-0.0454
-0.0455
-0.0454
-0.0455
-0.0454
-0.0455
-0.0454
-0.0455
-0.0454
-0.0455

shape_id 6
num_samples 130
0
0.0455
0.0454
0.0455
0.0454
0.0455
0.0454
0.0455
0.0454
0.0455
0.0454
0.0455
0.0455
0
0.0454
0.0455
0.0454
0.0455
0.0454
0.0455
0.0454
0.0455
0.0454
0.0455
0
0
83
-0.0455
-0.0454
-0.0455
-0.0454
-0.0455
-0.0454
-0.0455
-0.0454
-0.0455
-0.0454
-0.0455
-0.0455
0
-0.0454
-0.0455
-0.0454
-0.0455
-0.0454
-0.0455
-0.0454
-0.0455
-0.0454
-0.0455

shape_id 7
num_samples 128
3.1185456e-18
0.00127453224
0.0026150076
0.00404640679
0.0055884941
0.00725237491
0.00903728027
0.0109277615
0.0128914678
0.0148776647
0.0168166252
0.0186199974
0.0201822153
0.0213829799
0.0220907953
0.0221674984
0.0214736797
0.0198748468
0.0172481479
0.0134894341
0.00852041722
0.00229565689
0.00519089805
0.0139000901
0.023742723
0.0345759706
0.0462012445
0.0583637034
0.0707535436
0.0830091543
0.0947221685
0.105444376
0.114696404
0.121978009
0.126779769
0.128595897
0.126937869
0.1213485
0.111416086
0.0967882054
0.0771847626
0.0524098749
0.0223622072
0.0129565993
0.0534357194
0.0988514183
0.148866006
0.2030296
0.260784746
0.321473868
0.38434945
0.448586739
0.513298736
0.577553122
0.640390732
0.700845146
0.757962904
0.810823845
0.858561053
0.900379903
0.935575706
0.963549496
0.983821539
0.99604222
1
0.995626245
0.982996799
0.962330246
0.933982923
0.898440804
0.856308484
0.808295543
0.75520065
0.697893847
0.637297438
0.574366015
0.510066114
0.445356014
0.381166195
0.318380934
0.257821457
0.200231067
0.146262552
0.0964681428
0.0512921975
0.0110667268
0.0239902278
0.0537734105
0.0782864957
0.0976357634
0.112021567
0.121727911
0.1271105
0.128583644
0.126606432
0.121668583
0.114276384
0.104939095
0.0941561817
0.0824056914
0.0701340342
0.0577473882
0.0456048779
0.0340136183
0.0232256533
0.0134367573
0.0047870115
0.00263698648
0.00879846349
0.0137055855
0.0174055954
0.019978243
0.0215287824
0.0221808135
0.0220692302
0.0213335208
0.0201116368
0.018534614
0.01672209
0.0147788202
0.0127922499
0.0108311567
0.0089453338
0.0071662449
0.00550854641
0.00397234278
0.00254601672
0.00120946025

shape_id 8
num_samples 20
0
1
0
0
15
-1

shape_id 9
num_samples 18
0
1
0
0
13
-1

shape_id 10
num_samples 78
0
0.154973
0.1690054
0.1690054
3
0
0
63
-0.1690054
-0.1690054
3
-0.154973

shape_id 11
num_samples 4
0
1
1
0

shape_id 12
num_samples 32
0
1
0
0
27
-1


[SIGNATURE]
# This is the hash of the Pulseq file, calculated right before the [SIGNATURE] section was added
# It can be reproduced/verified with md5sum if the file trimmed to the position right above [SIGNATURE]
# The new line character preceding [SIGNATURE] BELONGS to the signature (and needs to be stripped away for recalculating/verification)
Type md5
Hash bfbd99290d1ae2a1038fcd8b301a38e0
