# Pulseq sequence file
# Created by PyPulseq

[VERSION]
major 1
minor 4
revision 0

[DEFINITIONS]
AdcRasterTime 1e-07 
BlockDurationRaster 1e-05 
EPI 1 
FOV 0.26 0.26 0.005 
GradientRasterTime 1e-05 
Name YARRA 
RadiofrequencyRasterTime 1e-06 
TotalDuration 4.23367 

# Format of blocks:
# NUM DUR RF  GX  GY  GZ  ADC  EXT
[BLOCKS]
 1 276   1   0   0   1  0  0
 2  52   0   0   0   2  0  0
 3 2542   0   0   0   0  0  0
 4 130   0   3   3   3  0  0
 5 276   2   0   0   1  0  0
 6 130   0   3   3   3  0  0
 7 2732   0   0   0   0  0  0
 8 17229   0   4   5   0  1  0
 9 130   0   0   0   3  0  0
10 399870   0   0   0   0  0  0

# Format of RF events:
# id amplitude mag_id phase_id time_shape_id delay freq phase
# ..        Hz   ....     ....          ....    us   Hz   rad
[RF]
1       342.29 2 3 4 100 0 0
2      895.738 7 3 4 100 0 0

# Format of arbitrary gradients:
#   time_shape_id of 0 means default timing (stepping with grad_raster starting at 1/2 of grad_raster)
# id amplitude amp_shape_id time_shape_id delay
# ..      Hz/m       ..         ..          us
[GRADIENTS]
1       210756 1 0 0
2      -934565 5 0 0
3       930307 6 0 0
4       382342 8 0 0
5       382231 9 0 0

# Format of ADC events:
# id num dwell delay freq phase
# ..  ..    ns    us   Hz   rad
[ADC]
1 17227 10000 10 0 0

# Sequence Shapes
[SHAPES]

shape_id 1
num_samples 276
0
0.1
0.1
8
0
0
253
-0.1
-0.1
8

shape_id 2
num_samples 128
3.11854168e-18
0.00127709713
0.00263619803
0.00412096129
0.00577427533
0.00763644759
0.00974335716
0.0121246124
0.0148017555
0.0177865559
0.0210794356
0.0246680655
0.0285261709
0.0326125821
0.0368705593
0.0412274199
0.0455944881
0.049867383
0.0539266529
0.0576387606
0.060857414
0.0634252303
0.0651757189
0.0659355557
0.0655271198
0.0637712562
0.0604902216
0.0555107692
0.0486673194
0.0398051656
0.028783659
0.0154793152
0.00021121304
0.018368353
0.0390470728
0.0622746373
0.0880487054
0.116335811
0.147070264
0.180153504
0.215453928
0.252807202
0.292017081
0.332856714
0.375070447
0.418376095
0.462467653
0.507018435
0.551684572
0.596108847
0.639924798
0.682761038
0.72424573
0.764011151
0.801698272
0.836961294
0.869472065
0.898924318
0.925037648
0.947561196
0.96627695
0.981002636
0.991594142
0.997947446
1
0.997731574
0.991164526
0.9803635
0.965434562
0.946523782
0.923815282
0.897528787
0.867916719
0.835260863
0.799868678
0.762069301
0.722209299
0.680648243
0.637754172
0.593899008
0.549453996
0.504785237
0.460249377
0.416189514
0.372931381
0.330779861
0.290015875
0.250893686
0.213638654
0.178445456
0.145476804
0.114862652
0.08669991
0.0610526363
0.0379527113
0.0174009566
0.000631326021
0.0162004336
0.0293880021
0.0402984533
0.0490562018
0.0558026742
0.0606931964
0.0638938077
0.0655780545
0.0659238229
0.0651102599
0.0633148353
0.06071059
0.0574636108
0.0537307703
0.0496577599
0.0453774413
0.0410085329
0.0366546428
0.0324036509
0.028327439
0.0244819565
0.0209076103
0.017629953
0.0146606458
0.0119986645
0.00963171233
0.00753780233
0.00568696944
0.00404306915
0.00256562126
0.00121165629

shape_id 3
num_samples 128
0
0
126

shape_id 4
num_samples 128
10
20
20
125

shape_id 5
num_samples 52
0
0.0455
0.0454
0.0455
0.0454
0.0455
0.0454
0.0455
0.0454
0.0455
0.0454
0.0455
0.0455
0
0.0454
0.0455
0.0454
0.0455
0.0454
0.0455
0.0454
0.0455
0.0454
0.0455
0
0
5
-0.0455
-0.0454
-0.0455
-0.0454
-0.0455
-0.0454
-0.0455
-0.0454
-0.0455
-0.0454
-0.0455
-0.0455
0
-0.0454
-0.0455
-0.0454
-0.0455
-0.0454
-0.0455
-0.0454
-0.0455
-0.0454
-0.0455

shape_id 6
num_samples 130
0
0.0455
0.0454
0.0455
0.0454
0.0455
0.0454
0.0455
0.0454
0.0455
0.0454
0.0455
0.0455
0
0.0454
0.0455
0.0454
0.0455
0.0454
0.0455
0.0454
0.0455
0.0454
0.0455
0
0
83
-0.0455
-0.0454
-0.0455
-0.0454
-0.0455
-0.0454
-0.0455
-0.0454
-0.0455
-0.0454
-0.0455
-0.0455
0
-0.0454
-0.0455
-0.0454
-0.0455
-0.0454
-0.0455
-0.0454
-0.0455
-0.0454
-0.0455

shape_id 7
num_samples 128
3.1185456e-18
0.00127453224
0.0026150076
0.00404640679
0.0055884941
0.00725237491
0.00903728027
0.0109277615
0.0128914678
0.0148776647
0.0168166252
0.0186199974
0.0201822153
0.0213829799
0.0220907953
0.0221674984
0.0214736797
0.0198748468
0.0172481479
0.0134894341
0.00852041722
0.00229565689
0.00519089805
0.0139000901
0.023742723
0.0345759706
0.0462012445
0.0583637034
0.0707535436
0.0830091543
0.0947221685
0.105444376
0.114696404
0.121978009
0.126779769
0.128595897
0.126937869
0.1213485
0.111416086
0.0967882054
0.0771847626
0.0524098749
0.0223622072
0.0129565993
0.0534357194
0.0988514183
0.148866006
0.2030296
0.260784746
0.321473868
0.38434945
0.448586739
0.513298736
0.577553122
0.640390732
0.700845146
0.757962904
0.810823845
0.858561053
0.900379903
0.935575706
0.963549496
0.983821539
0.99604222
1
0.995626245
0.982996799
0.962330246
0.933982923
0.898440804
0.856308484
0.808295543
0.75520065
0.697893847
0.637297438
0.574366015
0.510066114
0.445356014
0.381166195
0.318380934
0.257821457
0.200231067
0.146262552
0.0964681428
0.0512921975
0.0110667268
0.0239902278
0.0537734105
0.0782864957
0.0976357634
0.112021567
0.121727911
0.1271105
0.128583644
0.126606432
0.121668583
0.114276384
0.104939095
0.0941561817
0.0824056914
0.0701340342
0.0577473882
0.0456048779
0.0340136183
0.0232256533
0.0134367573
0.0047870115
0.00263698648
0.00879846349
0.0137055855
0.0174055954
0.019978243
0.0215287824
0.0221808135
0.0220692302
0.0213335208
0.0201116368
0.018534614
0.01672209
0.0147788202
0.0127922499
0.0108311567
0.0089453338
0.0071662449
0.00550854641
0.00397234278
0.00254601672
0.00120946025

shape_id 8
num_samples 17227
0.00153439852
0.00445447537
0.00708365431
0.00932902
0.0110684195
0.0121521565
0.0124202181
0.0117250467
0.00995420649
0.00704936486
0.00301946976
-0.00205286153
-0.00801181303
-0.0146350732
-0.021645653
-0.0287274128
-0.0355427887
-0.0417512507
-0.047027186
-0.0510761287
-0.0536485266
-0.0545505085
-0.0536513736
-0.0508877538
-0.0462645856
-0.0398531725
-0.0317867224
-0.0222538061
-0.0114902125
0.0002303221
0.0126060559
0.025317434
0.0380371611
0.0504398373
0.0622108968
0.0730546474
0.0827012624
0.0909126274
0.0974869908
0.102262406
0.105118991
0.105980048
0.104812137
0.101624163
0.0964656196
0.0894240676
0.0806219869
0.0702131108
0.0583783622
0.0453215017
0.0312645977
0.0164434136
0.001102807
-0.0145077798
-0.0301386645
-0.0455440425
-0.0604858239
-0.0747371482
-0.0880855403
-0.100335684
-0.111311795
-0.120859586
-0.128847817
-0.135169438
-0.139742337
-0.142509697
-0.143439994
-0.142526644
-0.139787341
-0.135263098
-0.129017031
-0.121132907
-0.111713499
-0.100878773
-0.0887639342
-0.0755173739
-0.0612985388
-0.0462757562
-0.0306240407
-0.014522909
0.00184577166
0.0182998804
0.0346590642
0.0507466644
0.0663915336
0.0814297273
0.0957060593
0.10907551
0.121404482
0.132571891
0.142470098
0.151005674
0.158099993
0.163689665
0.167726809
0.170179156
0.171030015
0.170278082
0.167937111
0.164035464
0.15861553
0.151733038
0.143456273
0.133865197
0.123050495
0.111112555
0.0981603899
0.0843105181
0.069685808
0.0544143035
0.0386280363
0.0224618375
0.00605215872
-0.0104640899
-0.0269506735
-0.0432731319
-0.0592998353
-0.0749029913
-0.0899595945
-0.104352315
-0.11797032
-0.130710026
-0.142475772
-0.153180421
-0.162745878
-0.171103532
-0.178194609
-0.18397045
-0.188392702
-0.191433434
-0.193075172
-0.193310854
-0.192143715
-0.189587097
-0.185664197
-0.180407743
-0.173859614
-0.166070406
-0.15709894
-0.147011733
-0.135882416
-0.123791126
-0.110823861
-0.0970718044
-0.0826306403
-0.0675998406
-0.0520819478
-0.0361818501
-0.0200060546
-0.00366196599
0.0127428285
0.0291012598
0.0453074625
0.0612574381
0.076849695
0.0919858597
0.106571258
0.120515461
0.133732797
0.146142818
0.157670739
0.168247816
0.177811698
0.186306722
0.193684169
0.199902469
0.204927363
0.208732018
0.211297093
0.212610767
0.21266871
0.211474024
0.209037133
0.205375637
0.20051412
0.194483933
0.187322927
0.179075168
0.16979061
0.159524747
0.148338233
0.136296486
0.123469267
0.109930245
0.0957565415
0.0810282674
0.0658280515
0.0502405589
0.0343520075
0.0182496831
0.00202145592
-0.014244699
-0.0304611746
-0.0465411965
-0.0623992751
-0.0779516462
-0.0931166946
-0.107815362
-0.121971532
-0.135512403
-0.148368826
-0.160475631
-0.171771922
-0.182201344
-0.191712331
-0.200258321
-0.207797939
-0.214295163
-0.219719448
-0.224045829
-0.227254993
-0.22933332
-0.230272898
-0.230071508
-0.228732581
-0.226265131
-0.222683656
-0.218008017
-0.212263296
-0.205479621
-0.197691981
-0.188940009
-0.179267752
-0.168723422
-0.157359128
-0.145230594
-0.132396867
-0.118920005
-0.104864761
-0.0902982583
-0.0752896543
-0.0599098029
-0.0442309108
-0.0283261926
-0.0122695252
0.00386489714
0.0200029049
0.0360706912
0.0519951449
0.0677041757
0.0831270315
0.0981946066
0.112839738
0.126997491
0.140605429
0.153603875
0.16593615
0.177548802
0.188391817
0.198418808
0.207587195
0.215858354
0.223197764
0.229575117
0.23496442
0.239344074
0.242696934
0.245010347
0.246276173
0.246490787
0.245655058
0.243774315
0.240858288
0.236921036
0.231980856
0.226060176
0.219185429
0.211386915
0.202698646
0.193158181
0.182806441
0.171687519
0.159848476
0.147339125
0.134211811
0.120521175
0.106323922
0.0916785702
0.0766452059
0.0612852281
0.0456610933
0.0298360571
0.0138739155
-0.00216125331
-0.0182053461
-0.0341944893
-0.050065291
-0.0657550874
-0.0812021856
-0.0963460995
-0.111127779
-0.12548983
-0.139376732
-0.152735035
-0.16551356
-0.177663577
-0.189138983
-0.199896457
-0.209895612
-0.219099132
-0.22747289
-0.234986063
-0.241611229
-0.247324443
-0.252105313
-0.255937053
-0.258806518
-0.260704242
-0.26162444
-0.261565011
-0.260527527
-0.258517199
-0.255542836
-0.251616796
-0.246754911
-0.240976414
-0.234303844
-0.226762947
-0.218382556
-0.209194476
-0.199233344
-0.188536487
-0.177143774
-0.165097454
-0.152441987
-0.139223879
-0.125491493
-0.111294871
-0.0966855439
-0.0817163369
-0.0664411757
-0.0509148877
-0.0351930021
-0.0193315492
-0.00338686012
0.0125846344
0.0285266024
0.0443830087
0.0600983086
0.0756176404
0.0908870122
0.105853486
0.120465354
0.134672314
0.148425632
0.161678306
0.174385216
0.186503267
0.197991532
0.208811374
0.218926569
0.228303417
0.23691084
0.244720478
0.251706768
0.257847016
0.263121457
0.267513311
0.271008817
0.273597271
0.275271039
0.276025571
0.275859398
0.274774123
0.272774397
0.269867892
0.266065256
0.261380067
0.255828769
0.249430606
0.242207547
0.234184194
0.225387695
0.215847637
0.205595945
0.194666757
0.18309631
0.170922811
0.158186301
0.144928517
0.131192754
0.117023714
0.102467356
0.0875707459
0.0723818963
0.0569496132
0.0413233344
0.02555297
0.00968874189
-0.00621897665
-0.0221198208
-0.0379635929
-0.0537004198
-0.069280908
-0.0846562961
-0.0997786046
-0.114600782
-0.129076848
-0.14316203
-0.156812899
-0.169987496
-0.182645455
-0.194748123
-0.206258669
-0.217142191
-0.227365811
-0.236898772
-0.245712518
-0.253780773
-0.261079613
-0.267587523
-0.273285459
-0.278156889
-0.282187832
-0.285366894
-0.287685286
-0.289136842
-0.289718021
-0.289427915
-0.288268232
-0.286243281
-0.283359953
-0.279627682
-0.275058412
-0.269666545
-0.263468891
-0.25648461
-0.248735139
-0.240244123
-0.231037336
-0.221142595
-0.210589669
-0.199410183
-0.187637521
-0.175306715
-0.162454342
-0.149118406
-0.135338223
-0.121154303
-0.106608224
-0.0917425107
-0.0766005041
-0.0612262356
-0.0456642962
-0.0299597057
-0.0141577818
0.00169599136
0.0175560942
0.0333771018
0.0491138135
0.0647213809
0.0801554339
0.0953722051
0.110328651
0.124982573
0.139292731
0.153218956
0.166722263
0.179764949
0.192310703
0.204324694
0.215773669
0.226626034
0.236851942
0.246423365
0.255314166
0.263500167
0.270959204
0.277671182
0.283618127
0.288784221
0.293155841
0.296721589
0.299472311
0.301401116
0.302503389
0.302776789
0.302221251
0.300838976
0.298634416
0.295614257
0.291787387
0.287164866
0.28175989
0.275587742
0.26866575
0.261013226
0.252651409
0.243603404
0.233894106
0.223550133
0.212599745
0.201072764
0.189000485
0.176415592
0.163352065
0.149845078
0.135930913
0.121646849
0.107031064
0.0921225334
0.0769609182
0.0615864625
0.0460398835
0.030362263
0.0145949381
-0.00122060826
-0.0170428564
-0.0328303588
-0.048541848
-0.0641363437
-0.0795732587
-0.094812503
-0.109814586
-0.124540718
-0.138952907
-0.153014053
-0.166688046
-0.179939849
-0.192735589
-0.205042639
-0.216829699
-0.228066868
-0.238725718
-0.248779365
-0.258202526
-0.266971583
-0.275064636
-0.282461553
-0.289144015
-0.295095555
-0.300301597
-0.304749483
-0.308428502
-0.311329906
-0.313446931
-0.314774802
-0.315310741
-0.315053969
-0.314005698
-0.312169122
-0.309549406
-0.30615366
-0.301990923
-0.297072125
-0.291410062
-0.285019352
-0.277916397
-0.270119332
-0.261647979
-0.25252379
-0.242769787
-0.232410505
-0.221471923
-0.209981393
-0.197967576
-0.18546036
-0.172490786
-0.159090969
-0.145294013
-0.131133929
-0.116645551
-0.101864443
-0.0868268163
-0.071569435
-0.0561295271
-0.0405446918
-0.0248528077
-0.00909194038
0.00669975059
0.0224841037
0.0382230477
0.0538786929
0.0694134214
0.0847899774
0.0999715544
0.114921883
0.129605315
0.143986908
0.158032504
0.171708814
0.184983486
0.197825189
0.210203674
0.222089853
0.233455855
0.244275095
0.254522329
0.264173711
0.273206845
0.281600835
0.289336325
0.296395545
0.302762345
0.308422228
0.313362381
0.317571699
0.321040804
0.323762065
0.325729607
0.326939323
0.327388876
0.327077701
0.326006997
0.324179727
0.321600595
0.318276041
0.314214213
0.309424947
0.303919741
0.297711716
0.290815592
0.283247641
0.275025649
0.26616887
0.256697976
0.246635011
0.23600333
0.224827547
0.213133472
0.20094805
0.188299299
0.175216238
0.161728825
0.147867879
0.133665014
0.119152562
0.1043635
0.0893313717
0.0740902117
0.0586744669
0.0431189185
0.0274586024
0.0117287302
-0.00403539018
-0.019798434
-0.0355251385
-0.0511803817
-0.06672926
-0.0821371658
-0.0973698633
-0.112393564
-0.127175
-0.141681497
-0.155881045
-0.169742366
-0.183234983
-0.196329286
-0.208996589
-0.221209201
-0.232940473
-0.244164862
-0.254857981
-0.26499665
-0.274558942
-0.283524229
-0.291873224
-0.29958802
-0.306652124
-0.313050488
-0.318769541
-0.323797213
-0.328122958
-0.331737771
-0.334634205
-0.336806383
-0.338250006
-0.338962358
-0.33894231
-0.338190313
-0.3367084
-0.334500169
-0.331570779
-0.327926932
-0.323576852
-0.318530266
-0.312798381
-0.30639385
-0.299330748
-0.291624535
-0.283292018
-0.274351316
-0.264821814
-0.254724119
-0.244080015
-0.232912414
-0.221245301
-0.209103684
-0.196513536
-0.183501739
-0.170096025
-0.156324915
-0.142217656
-0.127804159
-0.113114933
-0.0981810202
-0.0830339294
-0.0677055686
-0.0522281769
-0.0366342566
-0.0209565043
-0.00522774199
0.0105191516
0.0262513096
0.0419359459
0.0575404226
0.0730323179
0.0883794929
0.103550157
0.118512935
0.133236927
0.147691775
0.161847724
0.17567568
0.189147268
0.202234892
0.214911786
0.227152073
0.238930806
0.250224028
0.261008812
0.271263306
0.280966777
0.290099651
0.298643548
0.306581318
0.313897072
0.320576214
0.326605464
0.331972884
0.336667898
0.340681313
0.344005329
0.346633556
0.348561022
0.34978418
0.350300912
0.350110528
0.349213766
0.347612787
0.345311166
0.342313883
0.338627308
0.334259188
0.329218623
0.323516051
0.317163218
0.310173154
0.302560147
0.294339705
0.285528528
0.27614447
0.266206499
0.255734659
0.244750027
0.233274668
0.221331591
0.208944698
0.196138737
0.182939253
0.169372529
0.15546554
0.141245893
0.126741775
0.111981891
0.0969954125
0.081811915
0.0664613201
0.0509738361
0.0353798983
0.0197101084
0.00399517467
-0.0117341484
-0.0274471204
-0.0431130748
-0.0587014788
-0.0741819921
-0.089524526
-0.104699301
-0.119676904
-0.134428344
-0.148925109
-0.163139219
-0.177043279
-0.19061053
-0.203814901
-0.216631056
-0.229034444
-0.241001341
-0.252508896
-0.263535172
-0.274059189
-0.284060956
-0.293521515
-0.302422969
-0.310748517
-0.318482482
-0.325610341
-0.332118747
-0.337995554
-0.343229837
-0.34781191
-0.351733344
-0.354986976
-0.357566922
-0.359468587
-0.360688668
-0.361225161
-0.361077358
-0.360245849
-0.358732514
-0.356540522
-0.353674318
-0.350139615
-0.345943376
-0.341093804
-0.335600319
-0.32947354
-0.322725264
-0.315368437
-0.307417132
-0.298886517
-0.289792824
-0.280153321
-0.269986271
-0.259310901
-0.248147363
-0.23651669
-0.224440762
-0.21194226
-0.19904462
-0.185771992
-0.172149191
-0.15820165
-0.143955374
-0.129436886
-0.114673181
-0.0996916728
-0.084520144
-0.0691866925
-0.0537196799
-0.0381476787
-0.0224994188
-0.0068037346
0.00891048805
0.0246143654
0.0402790685
0.0558758762
0.0713762273
0.0867517728
0.101974427
0.117016419
0.13185034
0.146449199
0.160786464
0.174836112
0.188572677
0.201971294
0.215007743
0.22765849
0.239900733
0.251712435
0.263072369
0.273960151
0.284356275
0.294242151
0.303600129
0.312413537
0.320666703
0.328344984
0.335434792
0.341923613
0.347800027
0.353053731
0.35767555
0.361657455
0.364992572
0.367675196
0.369700794
0.371066014
0.37176869
0.371807839
0.371183663
0.369897548
0.367952056
0.36535092
0.362099035
0.358202446
0.353668335
0.348505009
0.342721879
0.336329444
0.329339268
0.321763959
0.313617146
0.30491345
0.295668458
0.285898693
0.275621584
0.264855433
0.25361938
0.241933372
0.229818118
0.217295063
0.204386336
0.191114721
0.177503608
0.163576958
0.149359252
0.134875455
0.120150964
0.10521157
0.0900834084
0.0747929125
0.0593667686
0.0438318684
0.0282152617
0.0125441095
-0.00315436363
-0.0188529166
-0.0345243394
-0.0501414997
-0.0656773901
-0.0811051742
-0.096398233
-0.11153021
-0.126475056
-0.141207076
-0.155700968
-0.169931869
-0.183875397
-0.197507693
-0.210805456
-0.223745987
-0.236307227
-0.248467788
-0.260206996
-0.271504918
-0.282342401
-0.292701097
-0.302563498
-0.311912963
-0.320733742
-0.329011005
-0.336730864
-0.343880394
-0.350447655
-0.356421707
-0.361792633
-0.366551548
-0.370690613
-0.374203052
-0.377083153
-0.379326282
-0.380928887
-0.381888502
-0.382203748
-0.381874336
-0.380901063
-0.37928581
-0.377031536
-0.374142273
-0.370623116
-0.36648021
-0.361720743
-0.356352928
-0.35038599
-0.343830146
-0.336696589
-0.328997466
-0.320745856
-0.311955745
-0.302642006
-0.292820367
-0.282507386
-0.271720424
-0.260477608
-0.248797807
-0.236700595
-0.22420622
-0.211335565
-0.198110117
-0.184551926
-0.170683572
-0.156528124
-0.1421091
-0.12745043
-0.112576414
-0.0975116826
-0.0822811533
-0.0669099921
-0.0514235696
-0.0358474196
-0.0202071965
-0.00452863332
0.0111625011
0.0268404442
0.042479482
0.0580539911
0.0735384807
0.0889076337
0.104136348
0.119199778
0.134073372
0.148732916
0.163154569
0.177314903
0.191190939
0.204760186
0.218000674
0.230890992
0.243410317
0.255538454
0.267255859
0.278543677
0.289383768
0.299758734
0.30965195
0.319047585
0.327930629
0.336286916
0.344103142
0.35136689
0.358066645
0.364191813
0.369732734
0.374680699
0.37902796
0.382767742
0.385894252
0.388402688
0.390289241
0.391551105
0.392186474
0.392194549
0.391575533
0.390330632
0.388462048
0.385972979
0.382867607
0.379151093
0.374829567
0.369910112
0.36440076
0.35831047
0.351649114
0.344427463
0.336657165
0.328350725
0.319521486
0.310183607
0.300352036
0.290042487
0.279271415
0.268055985
0.256414049
0.244364113
0.231925308
0.219117358
0.205960551
0.192475699
0.178684116
0.164607571
0.150268263
0.135688779
0.120892063
0.105901375
0.0907402577
0.0754324959
0.0600020821
0.0444731764
0.0288700698
0.0132171452
-0.00246116014
-0.0181403931
-0.0337961228
-0.0494039785
-0.0649396874
-0.0803791124
-0.0956982891
-0.110873463
-0.125881126
-0.140698052
-0.155301334
-0.169668416
-0.183777131
-0.197605732
-0.211132927
-0.224337908
-0.237200387
-0.249700621
-0.261819448
-0.273538309
-0.28483928
-0.295705099
-0.306119186
-0.316065676
-0.325529433
-0.334496079
-0.342952014
-0.35088443
-0.358281338
-0.365131577
-0.371424836
-0.377151665
-0.382303487
-0.386872616
-0.390852259
-0.394236531
-0.39702046
-0.399199994
-0.400772007
-0.401734298
-0.402085597
-0.401825566
-0.400954793
-0.399474797
-0.397388016
-0.394697809
-0.391408446
-0.387525102
-0.383053844
-0.378001624
-0.372376268
-0.366186459
-0.359441725
-0.352152423
-0.344329723
-0.335985588
-0.327132754
-0.317784716
-0.307955697
-0.297660633
-0.286915148
-0.275735524
-0.264138686
-0.252142164
-0.239764074
-0.227023089
-0.213938405
-0.200529717
-0.186817186
-0.172821411
-0.158563393
-0.144064508
-0.129346469
-0.1144313
-0.0993412954
-0.0840989929
-0.0687271349
-0.0532486367
-0.0376865515
-0.022064036
-0.0064043158
0.00926934901
0.0249336985
0.0405655076
0.0561416198
0.0716389822
0.0870346789
0.102305965
0.117430299
0.132385378
0.147149168
0.161699936
0.176016285
0.19007718
0.203861983
0.21735048
0.230522909
0.243359994
0.255842966
0.267953594
0.27967421
0.290987732
0.301877693
0.312328258
0.322324251
0.331851176
0.340895234
0.349443345
0.357483165
0.365003103
0.371992338
0.378440831
0.384339341
0.389679436
0.394453506
0.39865477
0.402277287
0.405315961
0.407766551
0.409625671
0.410890799
0.411560275
0.411633304
0.411109958
0.409991169
0.408278733
0.405975301
0.403084376
0.39961031
0.395558288
0.390934329
0.38574527
0.379998757
0.373703231
0.366867919
0.359502814
0.351618666
0.343226958
0.334339895
0.324970382
0.315132005
0.304839011
0.294106286
0.282949335
0.271384257
0.259427718
0.247096935
0.234409641
0.221384065
0.208038904
0.194393295
0.180466787
0.166279313
0.151851161
0.137202944
0.122355573
0.107330222
0.0921483012
0.0768314264
0.0614013855
0.0458801092
0.0302896393
0.0146520973
-0.00101034728
-0.016675508
-0.0323212131
-0.0479253368
-0.0634658306
-0.0789207542
-0.0942683063
-0.109486855
-0.12455497
-0.139451447
-0.154155346
-0.168646012
-0.182903108
-0.196906643
-0.210636999
-0.224074958
-0.237201727
-0.249998967
-0.262448817
-0.274533915
-0.286237427
-0.297543067
-0.308435117
-0.318898454
-0.328918564
-0.338481567
-0.347574229
-0.356183988
-0.364298963
-0.371907973
-0.379000553
-0.385566964
-0.39159821
-0.397086043
-0.402022983
-0.406402317
-0.410218115
-0.413465233
-0.416139321
-0.418236827
-0.419755003
-0.420691904
-0.421046391
-0.420818135
-0.420007611
-0.418616099
-0.416645683
-0.414099242
-0.410980451
-0.407293769
-0.403044436
-0.398238463
-0.392882623
-0.386984442
-0.380552185
-0.373594844
-0.366122128
-0.358144446
-0.34967289
-0.340719224
-0.331295861
-0.321415852
-0.31109286
-0.300341145
-0.289175543
-0.277611445
-0.265664774
-0.253351963
-0.240689933
-0.227696068
-0.214388191
-0.200784541
-0.186903744
-0.172764788
-0.158387002
-0.143790019
-0.12899376
-0.114018398
-0.0988843362
-0.0836121746
-0.0682226865
-0.0527367877
-0.0371755083
-0.0215599642
-0.00591132855
0.00974919752
0.0254004131
0.0410211464
0.0565902833
0.0720867959
0.0874897706
0.102778436
0.117932193
0.132930637
0.147753591
0.162381129
0.176793604
0.190971675
0.204896329
0.218548908
0.231911137
0.244965142
0.257693478
0.270079151
0.282105639
0.293756913
0.30501746
0.315872303
0.326307017
0.336307753
0.345861252
0.354954861
0.363576552
0.371714938
0.379359282
0.386499518
0.393126257
0.399230802
0.404805159
0.409842044
0.414334894
0.418277876
0.42166589
0.42449458
0.426760332
0.428460284
0.429592328
0.430155109
0.430148025
0.429571234
0.428425644
0.426712918
0.424435464
0.421596439
0.418199736
0.414249984
0.409752537
0.404713467
0.399139557
0.39303829
0.386417837
0.379287046
0.371655432
0.363533159
0.354931031
0.345860473
0.336333516
0.326362784
0.315961471
0.305143327
0.293922639
0.282314209
0.270333337
0.2579958
0.245317827
0.232316083
0.219007643
0.20540997
0.191540891
0.177418575
0.163061507
0.148488467
0.133718499
0.118770893
0.103665152
0.0884209751
0.0730582236
0.0575969
0.0420571197
0.0264590855
0.0108230609
-0.00483065607
-0.0204817591
-0.0361099603
-0.0516950161
-0.0672167535
-0.0826550962
-0.0979900904
-0.11320193
-0.128270984
-0.143177818
-0.157903223
-0.172428236
-0.186734168
-0.200802626
-0.214615535
-0.228155164
-0.241404145
-0.254345498
-0.266962649
-0.279239456
-0.291160222
-0.302709722
-0.313873217
-0.324636474
-0.334985785
-0.34490798
-0.354390447
-0.363421148
-0.371988629
-0.38008204
-0.387691142
-0.394806325
-0.401418615
-0.40751969
-0.413101881
-0.418158193
-0.422682302
-0.426668569
-0.430112045
-0.433008473
-0.435354299
-0.437146669
-0.438383438
-0.439063166
-0.439185124
-0.43874929
-0.437756353
-0.436207705
-0.434105443
-0.431452367
-0.42825197
-0.424508435
-0.420226634
-0.415412112
-0.410071086
-0.404210435
-0.397837688
-0.390961017
-0.383589224
-0.375731729
-0.367398558
-0.358600332
-0.349348247
-0.339654065
-0.329530097
-0.318989185
-0.308044687
-0.296710457
-0.285000834
-0.272930614
-0.260515036
-0.247769765
-0.234710866
-0.221354786
-0.207718335
-0.193818659
-0.179673226
-0.165299797
-0.150716406
-0.135941338
-0.120993104
-0.105890419
-0.0906521784
-0.0752974333
-0.0598453671
-0.0443152712
-0.0287265213
-0.0130985527
0.00254916375
0.0181971459
0.0338259247
0.0494160683
0.0649482061
0.0804030529
0.0957614325
0.111004302
0.126112774
0.141068141
0.155851898
0.170445767
0.184831714
0.198991977
0.212909086
0.226565882
0.239945541
0.25303159
0.265807933
0.278258866
0.290369097
0.302123765
0.313508457
0.324509227
0.33511261
0.345305639
0.355075862
0.364411356
0.373300739
0.381733186
0.389698441
0.397186826
0.40418926
0.410697259
0.416702954
0.422199096
0.427179067
0.431636883
0.435567205
0.438965343
0.44182726
0.444149579
0.445929583
0.447165221
0.447855106
0.44799852
0.44759541
0.446646393
0.445152746
0.443116414
0.440539998
0.437426756
0.433780597
0.429606076
0.424908385
0.419693352
0.413967426
0.407737676
0.401011773
0.393797988
0.386105178
0.377942774
0.369320769
0.360249708
0.350740671
0.340805261
0.330455588
0.319704258
0.308564351
0.297049409
0.285173418
0.272950789
0.260396345
0.247525296
0.234353225
0.220896069
0.207170094
0.193191884
0.178978311
0.164546523
0.149913915
0.135098117
0.120116963
0.104988477
0.0897308462
0.0743624021
0.0589015967
0.043366981
0.0277771822
0.0121508816
-0.00349320766
-0.0191363635
-0.0347598769
-0.0503450744
-0.0658733404
-0.0813261392
-0.0966850372
-0.111931725
-0.127048037
-0.142015978
-0.156817739
-0.171435721
-0.185852554
-0.20005112
-0.214014571
-0.227726349
-0.241170208
-0.254330228
-0.267190838
-0.279736832
-0.291953386
-0.303826078
-0.315340902
-0.326484285
-0.337243104
-0.347604698
-0.357556886
-0.367087978
-0.376186789
-0.384842655
-0.393045439
-0.400785548
-0.40805394
-0.414842136
-0.421142229
-0.426946893
-0.43224939
-0.437043578
-0.441323919
-0.445085483
-0.448323952
-0.451035627
-0.453217433
-0.454866917
-0.455982253
-0.456562247
-0.456606329
-0.456114563
-0.45508764
-0.453526876
-0.451434214
-0.448812219
-0.445664075
-0.441993577
-0.437805131
-0.433103747
-0.427895029
-0.422185172
-0.415980954
-0.409289723
-0.402119393
-0.394478431
-0.386375848
-0.377821189
-0.368824518
-0.359396409
-0.34954793
-0.339290633
-0.328636538
-0.317598119
-0.306188291
-0.294420388
-0.282308157
-0.269865732
-0.257107625
-0.244048702
-0.230704172
-0.217089563
-0.203220707
-0.189113723
-0.174784994
-0.160251148
-0.145529042
-0.130635741
-0.115588497
-0.100404727
-0.0851019989
-0.069698004
-0.0542105411
-0.0386574943
-0.0230568123
-0.00742648762
0.00821546377
0.0238510236
0.039462192
0.055031008
0.0705395702
0.0859700577
0.10130475
0.116526047
0.131616489
0.14655878
0.161335801
0.175930635
0.190326583
0.204507185
0.218456237
0.23215781
0.245596269
0.258756288
0.27162287
0.284181361
0.296417469
0.30831728
0.31986727
0.331054325
0.341865752
0.352289293
0.362313141
0.371925951
0.381116854
0.389875467
0.398191906
0.406056795
0.41346128
0.420397033
0.426856264
0.432831731
0.438316745
0.443305176
0.447791463
0.451770618
0.455238231
0.458190473
0.460624103
0.462536469
0.46392551
0.464789759
0.465128343
0.464940986
0.464228003
0.462990307
0.4612294
0.458947376
0.456146914
0.452831277
0.449004308
0.444670423
0.439834608
0.43450241
0.428679933
0.422373827
0.415591285
0.408340031
0.40062831
0.39246488
0.383859004
0.374820432
0.365359397
0.3554866
0.345213197
0.334550786
0.323511395
0.312107467
0.300351846
0.288257763
0.275838819
0.263108972
0.250082517
0.236774074
0.22319857
0.209371221
0.195307514
0.181023193
0.166534237
0.151856846
0.13700742
0.122002539
0.106858951
0.0915935435
0.0762233342
0.0607654454
0.0452370875
0.0296555393
0.0140381289
-0.00159778596
-0.0172348369
-0.0328556642
-0.0484429364
-0.0639793689
-0.0794477435
-0.0948309276
-0.110111892
-0.125273732
-0.140299684
-0.155173142
-0.169877682
-0.184397073
-0.198715301
-0.21281658
-0.226685376
-0.240306419
-0.253664721
-0.266745592
-0.279534657
-0.292017873
-0.304181538
-0.316012313
-0.327497233
-0.338623718
-0.349379594
-0.359753099
-0.369732898
-0.379308096
-0.388468249
-0.397203375
-0.405503964
-0.413360986
-0.420765907
-0.427710691
-0.434187811
-0.440190259
-0.445711547
-0.450745723
-0.455287366
-0.4593316
-0.462874097
-0.465911078
-0.468439319
-0.470456153
-0.471959476
-0.472947744
-0.473419974
-0.473375751
-0.472815219
-0.471739089
-0.47014863
-0.468045673
-0.465432605
-0.462312367
-0.458688451
-0.454564894
-0.449946275
-0.444837708
-0.439244836
-0.433173828
-0.426631364
-0.419624635
-0.412161332
-0.404249635
-0.395898208
-0.387116185
-0.377913162
-0.368299185
-0.358284741
-0.347880742
-0.33709852
-0.325949803
-0.314446716
-0.302601754
-0.290427779
-0.277937998
-0.265145954
-0.252065508
-0.238710822
-0.22509635
-0.211236816
-0.197147199
-0.18284272
-0.16833882
-0.153651149
-0.138795545
-0.123788017
-0.10864473
-0.0933819858
-0.0780162047
-0.0625639095
-0.0470417066
-0.0314662683
-0.015854315
-0.000222597131
0.015412123
0.0310330889
0.0466235679
0.0621668693
0.0776463617
0.0930454912
0.108347799
0.123536939
0.138596694
0.153510994
0.168263935
0.182839792
0.197223038
0.211398361
0.225350676
0.239065148
0.2525272
0.265722535
0.278637146
0.291257332
0.303569715
0.315561249
0.327219238
0.338531347
0.349485616
0.36007047
0.370274734
0.380087643
0.389498853
0.39849845
0.407076966
0.41522538
0.422935135
0.430198141
0.437006787
0.443353947
0.449232985
0.454637768
0.459562665
0.464002555
0.467952833
0.471409415
0.474368738
0.476827769
0.478784002
0.480235464
0.481180715
0.481618849
0.481549496
0.48097282
0.47988952
0.478300826
0.476208502
0.47361484
0.470522656
0.46693529
0.462856602
0.458290965
0.45324326
0.447718872
0.441723685
0.435264072
0.42834689
0.420979473
0.413169621
0.404925596
0.396256109
0.387170312
0.377677786
0.367788535
0.357512973
0.346861909
0.335846543
0.324478445
