# Pulseq sequence file
# Created by PyPulseq

[VERSION]
major 1
minor 4
revision 0

[DEFINITIONS]
AdcRasterTime 1e-07 
BlockDurationRaster 1e-05 
EPI 1 
FOV 0.26 0.26 0.005 
GradientRasterTime 1e-05 
Name YARRA 
RadiofrequencyRasterTime 1e-06 
TotalDuration 520.07808 

# Format of blocks:
# NUM DUR RF  GX  GY  GZ  ADC  EXT
[BLOCKS]
   1 276   1   0   0   1  0  0
   2  52   0   0   0   2  0  0
   3 2940   0   0   0   0  0  0
   4 130   0   3   3   3  0  0
   5 276   2   0   0   1  0  0
   6 130   0   3   3   3  0  0
   7 2271   0   0   0   0  0  0
   8  48   0   4   5   0  0  0
   9 142   0   6   0   0  1  0
  10  46   0   0   7   0  0  0
  11 130   0   0   0   3  0  0
  12 399870   0   0   0   0  0  0
  13 276   1   0   0   1  0  0
  14  52   0   0   0   2  0  0
  15 2940   0   0   0   0  0  0
  16 130   0   3   3   3  0  0
  17 276   2   0   0   1  0  0
  18 130   0   3   3   3  0  0
  19 2271   0   0   0   0  0  0
  20  48   0   4   8   0  0  0
  21 142   0   6   0   0  1  0
  22  46   0   0   9   0  0  0
  23 130   0   0   0   3  0  0
  24 399870   0   0   0   0  0  0
  25 276   1   0   0   1  0  0
  26  52   0   0   0   2  0  0
  27 2940   0   0   0   0  0  0
  28 130   0   3   3   3  0  0
  29 276   2   0   0   1  0  0
  30 130   0   3   3   3  0  0
  31 2271   0   0   0   0  0  0
  32  48   0   4  10   0  0  0
  33 142   0   6   0   0  1  0
  34  46   0   0  11   0  0  0
  35 130   0   0   0   3  0  0
  36 399870   0   0   0   0  0  0
  37 276   1   0   0   1  0  0
  38  52   0   0   0   2  0  0
  39 2940   0   0   0   0  0  0
  40 130   0   3   3   3  0  0
  41 276   2   0   0   1  0  0
  42 130   0   3   3   3  0  0
  43 2271   0   0   0   0  0  0
  44  48   0   4  12   0  0  0
  45 142   0   6   0   0  1  0
  46  46   0   0  13   0  0  0
  47 130   0   0   0   3  0  0
  48 399870   0   0   0   0  0  0
  49 276   1   0   0   1  0  0
  50  52   0   0   0   2  0  0
  51 2940   0   0   0   0  0  0
  52 130   0   3   3   3  0  0
  53 276   2   0   0   1  0  0
  54 130   0   3   3   3  0  0
  55 2271   0   0   0   0  0  0
  56  48   0   4  14   0  0  0
  57 142   0   6   0   0  1  0
  58  46   0   0  15   0  0  0
  59 130   0   0   0   3  0  0
  60 399870   0   0   0   0  0  0
  61 276   1   0   0   1  0  0
  62  52   0   0   0   2  0  0
  63 2940   0   0   0   0  0  0
  64 130   0   3   3   3  0  0
  65 276   2   0   0   1  0  0
  66 130   0   3   3   3  0  0
  67 2271   0   0   0   0  0  0
  68  48   0   4  16   0  0  0
  69 142   0   6   0   0  1  0
  70  46   0   0  17   0  0  0
  71 130   0   0   0   3  0  0
  72 399870   0   0   0   0  0  0
  73 276   1   0   0   1  0  0
  74  52   0   0   0   2  0  0
  75 2940   0   0   0   0  0  0
  76 130   0   3   3   3  0  0
  77 276   2   0   0   1  0  0
  78 130   0   3   3   3  0  0
  79 2271   0   0   0   0  0  0
  80  48   0   4  18   0  0  0
  81 142   0   6   0   0  1  0
  82  46   0   0  19   0  0  0
  83 130   0   0   0   3  0  0
  84 399870   0   0   0   0  0  0
  85 276   1   0   0   1  0  0
  86  52   0   0   0   2  0  0
  87 2940   0   0   0   0  0  0
  88 130   0   3   3   3  0  0
  89 276   2   0   0   1  0  0
  90 130   0   3   3   3  0  0
  91 2271   0   0   0   0  0  0
  92  48   0   4  20   0  0  0
  93 142   0   6   0   0  1  0
  94  46   0   0  21   0  0  0
  95 130   0   0   0   3  0  0
  96 399870   0   0   0   0  0  0
  97 276   1   0   0   1  0  0
  98  52   0   0   0   2  0  0
  99 2940   0   0   0   0  0  0
 100 130   0   3   3   3  0  0
 101 276   2   0   0   1  0  0
 102 130   0   3   3   3  0  0
 103 2271   0   0   0   0  0  0
 104  48   0   4  22   0  0  0
 105 142   0   6   0   0  1  0
 106  46   0   0  23   0  0  0
 107 130   0   0   0   3  0  0
 108 399870   0   0   0   0  0  0
 109 276   1   0   0   1  0  0
 110  52   0   0   0   2  0  0
 111 2940   0   0   0   0  0  0
 112 130   0   3   3   3  0  0
 113 276   2   0   0   1  0  0
 114 130   0   3   3   3  0  0
 115 2271   0   0   0   0  0  0
 116  48   0   4  24   0  0  0
 117 142   0   6   0   0  1  0
 118  46   0   0  25   0  0  0
 119 130   0   0   0   3  0  0
 120 399870   0   0   0   0  0  0
 121 276   1   0   0   1  0  0
 122  52   0   0   0   2  0  0
 123 2940   0   0   0   0  0  0
 124 130   0   3   3   3  0  0
 125 276   2   0   0   1  0  0
 126 130   0   3   3   3  0  0
 127 2271   0   0   0   0  0  0
 128  48   0   4  26   0  0  0
 129 142   0   6   0   0  1  0
 130  46   0   0  27   0  0  0
 131 130   0   0   0   3  0  0
 132 399870   0   0   0   0  0  0
 133 276   1   0   0   1  0  0
 134  52   0   0   0   2  0  0
 135 2940   0   0   0   0  0  0
 136 130   0   3   3   3  0  0
 137 276   2   0   0   1  0  0
 138 130   0   3   3   3  0  0
 139 2271   0   0   0   0  0  0
 140  48   0   4  28   0  0  0
 141 142   0   6   0   0  1  0
 142  46   0   0  29   0  0  0
 143 130   0   0   0   3  0  0
 144 399870   0   0   0   0  0  0
 145 276   1   0   0   1  0  0
 146  52   0   0   0   2  0  0
 147 2940   0   0   0   0  0  0
 148 130   0   3   3   3  0  0
 149 276   2   0   0   1  0  0
 150 130   0   3   3   3  0  0
 151 2271   0   0   0   0  0  0
 152  48   0   4  30   0  0  0
 153 142   0   6   0   0  1  0
 154  46   0   0  31   0  0  0
 155 130   0   0   0   3  0  0
 156 399870   0   0   0   0  0  0
 157 276   1   0   0   1  0  0
 158  52   0   0   0   2  0  0
 159 2940   0   0   0   0  0  0
 160 130   0   3   3   3  0  0
 161 276   2   0   0   1  0  0
 162 130   0   3   3   3  0  0
 163 2271   0   0   0   0  0  0
 164  48   0   4  32   0  0  0
 165 142   0   6   0   0  1  0
 166  46   0   0  33   0  0  0
 167 130   0   0   0   3  0  0
 168 399870   0   0   0   0  0  0
 169 276   1   0   0   1  0  0
 170  52   0   0   0   2  0  0
 171 2940   0   0   0   0  0  0
 172 130   0   3   3   3  0  0
 173 276   2   0   0   1  0  0
 174 130   0   3   3   3  0  0
 175 2271   0   0   0   0  0  0
 176  48   0   4  34   0  0  0
 177 142   0   6   0   0  1  0
 178  46   0   0  35   0  0  0
 179 130   0   0   0   3  0  0
 180 399870   0   0   0   0  0  0
 181 276   1   0   0   1  0  0
 182  52   0   0   0   2  0  0
 183 2940   0   0   0   0  0  0
 184 130   0   3   3   3  0  0
 185 276   2   0   0   1  0  0
 186 130   0   3   3   3  0  0
 187 2271   0   0   0   0  0  0
 188  48   0   4  36   0  0  0
 189 142   0   6   0   0  1  0
 190  46   0   0  37   0  0  0
 191 130   0   0   0   3  0  0
 192 399870   0   0   0   0  0  0
 193 276   1   0   0   1  0  0
 194  52   0   0   0   2  0  0
 195 2940   0   0   0   0  0  0
 196 130   0   3   3   3  0  0
 197 276   2   0   0   1  0  0
 198 130   0   3   3   3  0  0
 199 2271   0   0   0   0  0  0
 200  48   0   4  38   0  0  0
 201 142   0   6   0   0  1  0
 202  46   0   0  39   0  0  0
 203 130   0   0   0   3  0  0
 204 399870   0   0   0   0  0  0
 205 276   1   0   0   1  0  0
 206  52   0   0   0   2  0  0
 207 2940   0   0   0   0  0  0
 208 130   0   3   3   3  0  0
 209 276   2   0   0   1  0  0
 210 130   0   3   3   3  0  0
 211 2271   0   0   0   0  0  0
 212  48   0   4  40   0  0  0
 213 142   0   6   0   0  1  0
 214  46   0   0  41   0  0  0
 215 130   0   0   0   3  0  0
 216 399870   0   0   0   0  0  0
 217 276   1   0   0   1  0  0
 218  52   0   0   0   2  0  0
 219 2940   0   0   0   0  0  0
 220 130   0   3   3   3  0  0
 221 276   2   0   0   1  0  0
 222 130   0   3   3   3  0  0
 223 2271   0   0   0   0  0  0
 224  48   0   4  42   0  0  0
 225 142   0   6   0   0  1  0
 226  46   0   0  43   0  0  0
 227 130   0   0   0   3  0  0
 228 399870   0   0   0   0  0  0
 229 276   1   0   0   1  0  0
 230  52   0   0   0   2  0  0
 231 2940   0   0   0   0  0  0
 232 130   0   3   3   3  0  0
 233 276   2   0   0   1  0  0
 234 130   0   3   3   3  0  0
 235 2271   0   0   0   0  0  0
 236  48   0   4  44   0  0  0
 237 142   0   6   0   0  1  0
 238  46   0   0  45   0  0  0
 239 130   0   0   0   3  0  0
 240 399870   0   0   0   0  0  0
 241 276   1   0   0   1  0  0
 242  52   0   0   0   2  0  0
 243 2940   0   0   0   0  0  0
 244 130   0   3   3   3  0  0
 245 276   2   0   0   1  0  0
 246 130   0   3   3   3  0  0
 247 2271   0   0   0   0  0  0
 248  48   0   4  46   0  0  0
 249 142   0   6   0   0  1  0
 250  46   0   0  47   0  0  0
 251 130   0   0   0   3  0  0
 252 399870   0   0   0   0  0  0
 253 276   1   0   0   1  0  0
 254  52   0   0   0   2  0  0
 255 2940   0   0   0   0  0  0
 256 130   0   3   3   3  0  0
 257 276   2   0   0   1  0  0
 258 130   0   3   3   3  0  0
 259 2271   0   0   0   0  0  0
 260  48   0   4  48   0  0  0
 261 142   0   6   0   0  1  0
 262  46   0   0  49   0  0  0
 263 130   0   0   0   3  0  0
 264 399870   0   0   0   0  0  0
 265 276   1   0   0   1  0  0
 266  52   0   0   0   2  0  0
 267 2940   0   0   0   0  0  0
 268 130   0   3   3   3  0  0
 269 276   2   0   0   1  0  0
 270 130   0   3   3   3  0  0
 271 2271   0   0   0   0  0  0
 272  48   0   4  50   0  0  0
 273 142   0   6   0   0  1  0
 274  46   0   0  51   0  0  0
 275 130   0   0   0   3  0  0
 276 399870   0   0   0   0  0  0
 277 276   1   0   0   1  0  0
 278  52   0   0   0   2  0  0
 279 2940   0   0   0   0  0  0
 280 130   0   3   3   3  0  0
 281 276   2   0   0   1  0  0
 282 130   0   3   3   3  0  0
 283 2271   0   0   0   0  0  0
 284  48   0   4  52   0  0  0
 285 142   0   6   0   0  1  0
 286  46   0   0  53   0  0  0
 287 130   0   0   0   3  0  0
 288 399870   0   0   0   0  0  0
 289 276   1   0   0   1  0  0
 290  52   0   0   0   2  0  0
 291 2940   0   0   0   0  0  0
 292 130   0   3   3   3  0  0
 293 276   2   0   0   1  0  0
 294 130   0   3   3   3  0  0
 295 2271   0   0   0   0  0  0
 296  48   0   4  54   0  0  0
 297 142   0   6   0   0  1  0
 298  46   0   0  55   0  0  0
 299 130   0   0   0   3  0  0
 300 399870   0   0   0   0  0  0
 301 276   1   0   0   1  0  0
 302  52   0   0   0   2  0  0
 303 2940   0   0   0   0  0  0
 304 130   0   3   3   3  0  0
 305 276   2   0   0   1  0  0
 306 130   0   3   3   3  0  0
 307 2271   0   0   0   0  0  0
[RF]
1       342.29 2 3 4 100 0 0
2      895.738 7 3 4 100 0 0

# Format of arbitrary gradients:
#   time_shape_id of 0 means default timing (stepping with grad_raster starting at 1/2 of grad_raster)
# id amplitude amp_shape_id time_shape_id delay
# ..      Hz/m       ..         ..          us
[GRADIENTS]
1       210756 1 0 0
2      -934565 5 0 0
3       930307 6 0 0
4      -816924 8 0 0
5       807730 9 0 0
6       384633 10 0 0
7      -807730 9 0 0
8       795109 9 0 0
9      -795109 9 0 0
10       782489 9 0 0
11      -782489 9 0 0
12       769868 9 0 0
13      -769868 9 0 0
14       757247 9 0 0
15      -757247 9 0 0
16       744626 9 0 0
17      -744626 9 0 0
18       732006 9 0 0
19      -732006 9 0 0
20       719385 9 0 0
21      -719385 9 0 0
22       706764 9 0 0
23      -706764 9 0 0
24       694143 9 0 0
25      -694143 9 0 0
26       681522 9 0 0
27      -681522 9 0 0
28       668902 9 0 0
29      -668902 9 0 0
30       656281 9 0 0
31      -656281 9 0 0
32       643660 9 0 0
33      -643660 9 0 0
34       631039 9 0 0
35      -631039 9 0 0
36       618418 9 0 0
37      -618418 9 0 0
38       605798 9 0 0
39      -605798 9 0 0
40       593177 9 0 0
41      -593177 9 0 0
42       580556 9 0 0
43      -580556 9 0 0
44       567935 9 0 0
45      -567935 9 0 0
46       555315 9 0 0
47      -555315 9 0 0
48       542694 9 0 0
49      -542694 9 0 0
50       530073 9 0 0
51      -530073 9 0 0
52       517452 9 0 0
53      -517452 9 0 0
54       504831 9 0 0
55      -504831 9 0 0
56       492211 9 0 0
57      -492211 9 0 0
58       479590 9 0 0
59      -479590 9 0 0
60       466969 9 0 0
61      -466969 9 0 0
62       454348 9 0 0
63      -454348 9 0 0
64       441727 9 0 0
65      -441727 9 0 0
66       429107 9 0 0
67      -429107 9 0 0
68       416486 9 0 0
69      -416486 9 0 0
70       403865 9 0 0
71      -403865 9 0 0
72       391244 9 0 0
73      -391244 9 0 0
74       378624 9 0 0
75      -378624 9 0 0
76       366003 9 0 0
77      -366003 9 0 0
78       353382 9 0 0
79      -353382 9 0 0
80       340761 9 0 0
81      -340761 9 0 0
82       328140 9 0 0
83      -328140 9 0 0
84       315520 9 0 0
85      -315520 9 0 0
86       302899 9 0 0
87      -302899 9 0 0
88       290278 9 0 0
89      -290278 9 0 0
90       277657 9 0 0
91      -277657 9 0 0
92       265036 9 0 0
93      -265036 9 0 0
94       252416 9 0 0
95      -252416 9 0 0
96       239795 9 0 0
97      -239795 9 0 0
98       227174 9 0 0
99      -227174 9 0 0
100       214553 9 0 0
101      -214553 9 0 0
102       201933 9 0 0
103      -201933 9 0 0
104       189312 9 0 0
105      -189312 9 0 0
106       176691 9 0 0
107      -176691 9 0 0
108       164070 9 0 0
109      -164070 9 0 0
110       151449 9 0 0
111      -151449 9 0 0
112       138829 9 0 0
113      -138829 9 0 0
114       126208 9 0 0
115      -126208 9 0 0
116       113587 9 0 0
117      -113587 9 0 0
118       100966 9 0 0
119      -100966 9 0 0
120      88345.5 9 0 0
121     -88345.5 9 0 0
122      75724.7 9 0 0
123     -75724.7 9 0 0
124      63103.9 9 0 0
125     -63103.9 9 0 0
126      50483.1 9 0 0
127     -50483.1 9 0 0
128      37862.4 9 0 0
129     -37862.4 9 0 0
130      25241.6 9 0 0
131     -25241.6 9 0 0
132      12620.8 9 0 0
133     -12620.8 9 0 0
134            0 11 0 0
135      -138829 9 0 0
136       138829 9 0 0
137      -151449 9 0 0
138       151449 9 0 0
139      -189312 9 0 0
140       189312 9 0 0
141      -201933 9 0 0
142       201933 9 0 0
143      -214553 9 0 0
144       214553 9 0 0
145      -252416 9 0 0
146       252416 9 0 0
147      -265036 9 0 0
148       265036 9 0 0
149      -315520 9 0 0
150       315520 9 0 0
151      -328140 9 0 0
152       328140 9 0 0
153      -366003 9 0 0
154       366003 9 0 0
155      -378624 9 0 0
156       378624 9 0 0
157      -429107 9 0 0
158       429107 9 0 0
159      -441727 9 0 0
160       441727 9 0 0
161      -492211 9 0 0
162       492211 9 0 0
163      -555315 9 0 0
164       555315 9 0 0
165      -605798 9 0 0
166       605798 9 0 0
167      -618418 9 0 0
168       618418 9 0 0
169      -631039 9 0 0
170       631039 9 0 0
171      -643660 9 0 0
172       643660 9 0 0
173      -656281 9 0 0
174       656281 9 0 0
175      -668902 9 0 0
176       668902 9 0 0
177      -732006 9 0 0
178       732006 9 0 0
179      -744626 9 0 0
180       744626 9 0 0
181      -757247 9 0 0
182       757247 9 0 0
183      -769868 9 0 0
184       769868 9 0 0

# Format of ADC events:
# id num dwell delay freq phase
# ..  ..    ns    us   Hz   rad
[ADC]
1 128 10000 70 0 0

# Sequence Shapes
[SHAPES]

shape_id 1
num_samples 276
0
0.1
0.1
8
0
0
253
-0.1
-0.1
8

shape_id 2
num_samples 128
3.11854168e-18
0.00127709713
0.00263619803
0.00412096129
0.00577427533
0.00763644759
0.00974335716
0.0121246124
0.0148017555
0.0177865559
0.0210794356
0.0246680655
0.0285261709
0.0326125821
0.0368705593
0.0412274199
0.0455944881
0.049867383
0.0539266529
0.0576387606
0.060857414
0.0634252303
0.0651757189
0.0659355557
0.0655271198
0.0637712562
0.0604902216
0.0555107692
0.0486673194
0.0398051656
0.028783659
0.0154793152
0.00021121304
0.018368353
0.0390470728
0.0622746373
0.0880487054
0.116335811
0.147070264
0.180153504
0.215453928
0.252807202
0.292017081
0.332856714
0.375070447
0.418376095
0.462467653
0.507018435
0.551684572
0.596108847
0.639924798
0.682761038
0.72424573
0.764011151
0.801698272
0.836961294
0.869472065
0.898924318
0.925037648
0.947561196
0.96627695
0.981002636
0.991594142
0.997947446
1
0.997731574
0.991164526
0.9803635
0.965434562
0.946523782
0.923815282
0.897528787
0.867916719
0.835260863
0.799868678
0.762069301
0.722209299
0.680648243
0.637754172
0.593899008
0.549453996
0.504785237
0.460249377
0.416189514
0.372931381
0.330779861
0.290015875
0.250893686
0.213638654
0.178445456
0.145476804
0.114862652
0.08669991
0.0610526363
0.0379527113
0.0174009566
0.000631326021
0.0162004336
0.0293880021
0.0402984533
0.0490562018
0.0558026742
0.0606931964
0.0638938077
0.0655780545
0.0659238229
0.0651102599
0.0633148353
0.06071059
0.0574636108
0.0537307703
0.0496577599
0.0453774413
0.0410085329
0.0366546428
0.0324036509
0.028327439
0.0244819565
0.0209076103
0.017629953
0.0146606458
0.0119986645
0.00963171233
0.00753780233
0.00568696944
0.00404306915
0.00256562126
0.00121165629

shape_id 3
num_samples 128
0
0
126

shape_id 4
num_samples 128
10
20
20
125

shape_id 5
num_samples 52
0
0.0455
0.0454
0.0455
0.0454
0.0455
0.0454
0.0455
0.0454
0.0455
0.0454
0.0455
0.0455
0
0.0454
0.0455
0.0454
0.0455
0.0454
0.0455
0.0454
0.0455
0.0454
0.0455
0
0
5
-0.0455
-0.0454
-0.0455
-0.0454
-0.0455
-0.0454
-0.0455
-0.0454
-0.0455
-0.0454
-0.0455
-0.0455
0
-0.0454
-0.0455
-0.0454
-0.0455
-0.0454
-0.0455
-0.0454
-0.0455
-0.0454
-0.0455

shape_id 6
num_samples 130
0
0.0455
0.0454
0.0455
0.0454
0.0455
0.0454
0.0455
0.0454
0.0455
0.0454
0.0455
0.0455
0
0.0454
0.0455
0.0454
0.0455
0.0454
0.0455
0.0454
0.0455
0.0454
0.0455
0
0
83
-0.0455
-0.0454
-0.0455
-0.0454
-0.0455
-0.0454
-0.0455
-0.0454
-0.0455
-0.0454
-0.0455
-0.0455
0
-0.0454
-0.0455
-0.0454
-0.0455
-0.0454
-0.0455
-0.0454
-0.0455
-0.0454
-0.0455

shape_id 7
num_samples 128
3.1185456e-18
0.00127453224
0.0026150076
0.00404640679
0.0055884941
0.00725237491
0.00903728027
0.0109277615
0.0128914678
0.0148776647
0.0168166252
0.0186199974
0.0201822153
0.0213829799
0.0220907953
0.0221674984
0.0214736797
0.0198748468
0.0172481479
0.0134894341
0.00852041722
0.00229565689
0.00519089805
0.0139000901
0.023742723
0.0345759706
0.0462012445
0.0583637034
0.0707535436
0.0830091543
0.0947221685
0.105444376
0.114696404
0.121978009
0.126779769
0.128595897
0.126937869
0.1213485
0.111416086
0.0967882054
0.0771847626
0.0524098749
0.0223622072
0.0129565993
0.0534357194
0.0988514183
0.148866006
0.2030296
0.260784746
0.321473868
0.38434945
0.448586739
0.513298736
0.577553122
0.640390732
0.700845146
0.757962904
0.810823845
0.858561053
0.900379903
0.935575706
0.963549496
0.983821539
0.99604222
1
0.995626245
0.982996799
0.962330246
0.933982923
0.898440804
0.856308484
0.808295543
0.75520065
0.697893847
0.637297438
0.574366015
0.510066114
0.445356014
0.381166195
0.318380934
0.257821457
0.200231067
0.146262552
0.0964681428
0.0512921975
0.0110667268
0.0239902278
0.0537734105
0.0782864957
0.0976357634
0.112021567
0.121727911
0.1271105
0.128583644
0.126606432
0.121668583
0.114276384
0.104939095
0.0941561817
0.0824056914
0.0701340342
0.0577473882
0.0456048779
0.0340136183
0.0232256533
0.0134367573
0.0047870115
0.00263698648
0.00879846349
0.0137055855
0.0174055954
0.019978243
0.0215287824
0.0221808135
0.0220692302
0.0213335208
0.0201116368
0.018534614
0.01672209
0.0147788202
0.0127922499
0.0108311567
0.0089453338
0.0071662449
0.00550854641
0.00397234278
0.00254601672
0.00120946025

shape_id 8
num_samples 48
0
0.0666667
0.0666666
0.0666667
0.0666667
0
0.0666666
0.0666667
0.0666667
0
0.0666666
0.0666667
0.0666667
0
0.0666666
0.0666667
0.0666667
0
0.0666666
0.0666667
0
0
15
-0.0666667
-0.0666666
-0.0666667
-0.0666667
0
-0.0666666
-0.0666667
-0.0666667
0
-0.0666666
-0.0666667
-0.0666667
0
-0.0666666
-0.0666667
-0.0666667
0
-0.0666666
-0.0666667

shape_id 9
num_samples 46
0
0.0666667
0.0666666
0.0666667
0.0666667
0
0.0666666
0.0666667
0.0666667
0
0.0666666
0.0666667
0.0666667
0
0.0666666
0.0666667
0.0666667
0
0.0666666
0.0666667
0
0
13
-0.0666667
-0.0666666
-0.0666667
-0.0666667
0
-0.0666666
-0.0666667
-0.0666667
0
-0.0666666
-0.0666667
-0.0666667
0
-0.0666666
-0.0666667
-0.0666667
0
-0.0666666
-0.0666667

shape_id 10
num_samples 142
0
0.154973
0.1690054
0.1690054
3
0
0
127
-0.1690054
-0.1690054
3
-0.154973

shape_id 11
num_samples 46
0
0
44


[SIGNATURE]
# This is the hash of the Pulseq file, calculated right before the [SIGNATURE] section was added
# It can be reproduced/verified with md5sum if the file trimmed to the position right above [SIGNATURE]
# The new line character preceding [SIGNATURE] BELONGS to the signature (and needs to be stripped away for recalculating/verification)
Type md5
Hash 2e0026aeef7222ced23283cf0ae858a9
