# Pulseq sequence file
# Created by PyPulseq

[VERSION]
major 1
minor 4
revision 0

[DEFINITIONS]
AdcRasterTime 1e-07 
BlockDurationRaster 1e-05 
EPI 1 
FOV 0.26 0.26 0.005 
GradientRasterTime 1e-05 
Name YARRA 
RadiofrequencyRasterTime 1e-06 
TotalDuration 4.29742 

# Format of blocks:
# NUM DUR RF  GX  GY  GZ  ADC  EXT
[BLOCKS]
  1 276   1   0   0   1  0  0
  2  52   0   0   0   2  0  0
  3 9940   0   0   0   0  0  0
  4 130   0   3   3   3  0  0
  5 276   2   0   0   1  0  0
  6 130   0   3   3   3  0  0
  7 158   0   0   0   0  0  0
  8  34   0   4   5   0  0  0
  9 142   0   6   0   0  1  0
 10   4   0   0   7   0  0  0
 11 142   0   8   0   0  2  0
 12   4   0   0   7   0  0  0
 13 142   0   6   0   0  1  0
 14   4   0   0   7   0  0  0
 15 142   0   8   0   0  2  0
 16   4   0   0   7   0  0  0
 17 142   0   6   0   0  1  0
 18   4   0   0   7   0  0  0
 19 142   0   8   0   0  2  0
 20   4   0   0   7   0  0  0
 21 142   0   6   0   0  1  0
 22   4   0   0   7   0  0  0
 23 142   0   8   0   0  2  0
 24   4   0   0   7   0  0  0
 25 142   0   6   0   0  1  0
 26   4   0   0   7   0  0  0
 27 142   0   8   0   0  2  0
 28   4   0   0   7   0  0  0
 29 142   0   6   0   0  1  0
 30   4   0   0   7   0  0  0
 31 142   0   8   0   0  2  0
 32   4   0   0   7   0  0  0
 33 142   0   6   0   0  1  0
 34   4   0   0   7   0  0  0
 35 142   0   8   0   0  2  0
 36   4   0   0   7   0  0  0
 37 142   0   6   0   0  1  0
 38   4   0   0   7   0  0  0
 39 142   0   8   0   0  2  0
 40   4   0   0   7   0  0  0
 41 142   0   6   0   0  1  0
 42   4   0   0   7   0  0  0
 43 142   0   8   0   0  2  0
 44   4   0   0   7   0  0  0
 45 142   0   6   0   0  1  0
 46   4   0   0   7   0  0  0
 47 142   0   8   0   0  2  0
 48   4   0   0   7   0  0  0
 49 142   0   6   0   0  1  0
 50   4   0   0   7   0  0  0
 51 142   0   8   0   0  2  0
 52   4   0   0   7   0  0  0
 53 142   0   6   0   0  1  0
 54   4   0   0   7   0  0  0
 55 142   0   8   0   0  2  0
 56   4   0   0   7   0  0  0
 57 142   0   6   0   0  1  0
 58   4   0   0   7   0  0  0
 59 142   0   8   0   0  2  0
 60   4   0   0   7   0  0  0
 61 142   0   6   0   0  1  0
 62   4   0   0   7   0  0  0
 63 142   0   8   0   0  2  0
 64   4   0   0   7   0  0  0
 65 142   0   6   0   0  1  0
 66   4   0   0   7   0  0  0
 67 142   0   8   0   0  2  0
 68   4   0   0   7   0  0  0
 69 142   0   6   0   0  1  0
 70   4   0   0   7   0  0  0
 71 142   0   8   0   0  2  0
 72   4   0   0   7   0  0  0
 73 142   0   6   0   0  1  0
 74   4   0   0   7   0  0  0
 75 142   0   8   0   0  2  0
 76   4   0   0   7   0  0  0
 77 142   0   6   0   0  1  0
 78   4   0   0   7   0  0  0
 79 142   0   8   0   0  2  0
 80   4   0   0   7   0  0  0
 81 142   0   6   0   0  1  0
 82   4   0   0   7   0  0  0
 83 142   0   8   0   0  2  0
 84   4   0   0   7   0  0  0
 85 142   0   6   0   0  1  0
 86   4   0   0   7   0  0  0
 87 142   0   8   0   0  2  0
 88   4   0   0   7   0  0  0
 89 142   0   6   0   0  1  0
 90   4   0   0   7   0  0  0
 91 142   0   8   0   0  2  0
 92   4   0   0   7   0  0  0
 93 142   0   6   0   0  1  0
 94   4   0   0   7   0  0  0
 95 142   0   8   0   0  2  0
 96   4   0   0   7   0  0  0
 97 142   0   6   0   0  1  0
 98   4   0   0   7   0  0  0
 99 142   0   8   0   0  2  0
100   4   0   0   7   0  0  0
101 142   0   6   0   0  1  0
102   4   0   0   7   0  0  0
103 142   0   8   0   0  2  0
104   4   0   0   7   0  0  0
105 142   0   6   0   0  1  0
106   4   0   0   7   0  0  0
107 142   0   8   0   0  2  0
108   4   0   0   7   0  0  0
109 142   0   6   0   0  1  0
110   4   0   0   7   0  0  0
111 142   0   8   0   0  2  0
112   4   0   0   7   0  0  0
113 142   0   6   0   0  1  0
114   4   0   0   7   0  0  0
115 142   0   8   0   0  2  0
116   4   0   0   7   0  0  0
117 142   0   6   0   0  1  0
118   4   0   0   7   0  0  0
119 142   0   8   0   0  2  0
120   4   0   0   7   0  0  0
121 142   0   6   0   0  1  0
122   4   0   0   7   0  0  0
123 142   0   8   0   0  2  0
124   4   0   0   7   0  0  0
125 142   0   6   0   0  1  0
126   4   0   0   7   0  0  0
127 142   0   8   0   0  2  0
128   4   0   0   7   0  0  0
129 142   0   6   0   0  1  0
130   4   0   0   7   0  0  0
131 142   0   8   0   0  2  0
132   4   0   0   7   0  0  0
133 142   0   6   0   0  1  0
134   4   0   0   7   0  0  0
135 142   0   8   0   0  2  0
136   4   0   0   7   0  0  0
137 142   0   6   0   0  1  0
138   4   0   0   7   0  0  0
139 142   0   8   0   0  2  0
140   4   0   0   7   0  0  0
141 142   0   6   0   0  1  0
142   4   0   0   7   0  0  0
143 142   0   8   0   0  2  0
144   4   0   0   7   0  0  0
145 142   0   6   0   0  1  0
146   4   0   0   7   0  0  0
147 142   0   8   0   0  2  0
148   4   0   0   7   0  0  0
149 142   0   6   0   0  1  0
150   4   0   0   7   0  0  0
151 142   0   8   0   0  2  0
152   4   0   0   7   0  0  0
153 142   0   6   0   0  1  0
154   4   0   0   7   0  0  0
155 142   0   8   0   0  2  0
156   4   0   0   7   0  0  0
157 142   0   6   0   0  1  0
158   4   0   0   7   0  0  0
159 142   0   8   0   0  2  0
160   4   0   0   7   0  0  0
161 142   0   6   0   0  1  0
162   4   0   0   7   0  0  0
163 142   0   8   0   0  2  0
164   4   0   0   7   0  0  0
165 142   0   6   0   0  1  0
166   4   0   0   7   0  0  0
167 142   0   8   0   0  2  0
168   4   0   0   7   0  0  0
169 142   0   6   0   0  1  0
170   4   0   0   7   0  0  0
171 142   0   8   0   0  2  0
172   4   0   0   7   0  0  0
173 142   0   6   0   0  1  0
174   4   0   0   7   0  0  0
175 142   0   8   0   0  2  0
176   4   0   0   7   0  0  0
177 142   0   6   0   0  1  0
178   4   0   0   7   0  0  0
179 142   0   8   0   0  2  0
180   4   0   0   7   0  0  0
181 142   0   6   0   0  1  0
182   4   0   0   7   0  0  0
183 142   0   8   0   0  2  0
184   4   0   0   7   0  0  0
185 142   0   6   0   0  1  0
186   4   0   0   7   0  0  0
187 142   0   8   0   0  2  0
188   4   0   0   7   0  0  0
189 142   0   6   0   0  1  0
190   4   0   0   7   0  0  0
191 142   0   8   0   0  2  0
192   4   0   0   7   0  0  0
193 142   0   6   0   0  1  0
194   4   0   0   7   0  0  0
195 142   0   8   0   0  2  0
196   4   0   0   7   0  0  0
197 142   0   6   0   0  1  0
198   4   0   0   7   0  0  0
199 142   0   8   0   0  2  0
200   4   0   0   7   0  0  0
201 142   0   6   0   0  1  0
202   4   0   0   7   0  0  0
203 142   0   8   0   0  2  0
204   4   0   0   7   0  0  0
205 142   0   6   0   0  1  0
206   4   0   0   7   0  0  0
207 142   0   8   0   0  2  0
208   4   0   0   7   0  0  0
209 142   0   6   0   0  1  0
210   4   0   0   7   0  0  0
211 142   0   8   0   0  2  0
212   4   0   0   7   0  0  0
213 142   0   6   0   0  1  0
214   4   0   0   7   0  0  0
215 142   0   8   0   0  2  0
216   4   0   0   7   0  0  0
217 142   0   6   0   0  1  0
218   4   0   0   7   0  0  0
219 142   0   8   0   0  2  0
220   4   0   0   7   0  0  0
221 142   0   6   0   0  1  0
222   4   0   0   7   0  0  0
223 142   0   8   0   0  2  0
224   4   0   0   7   0  0  0
225 142   0   6   0   0  1  0
226   4   0   0   7   0  0  0
227 142   0   8   0   0  2  0
228   4   0   0   7   0  0  0
229 142   0   6   0   0  1  0
230   4   0   0   7   0  0  0
231 142   0   8   0   0  2  0
232   4   0   0   7   0  0  0
233 142   0   6   0   0  1  0
234   4   0   0   7   0  0  0
235 142   0   8   0   0  2  0
236   4   0   0   7   0  0  0
237 142   0   6   0   0  1  0
238   4   0   0   7   0  0  0
239 142   0   8   0   0  2  0
240   4   0   0   7   0  0  0
241 142   0   6   0   0  1  0
242   4   0   0   7   0  0  0
243 142   0   8   0   0  2  0
244   4   0   0   7   0  0  0
245 142   0   6   0   0  1  0
246   4   0   0   7   0  0  0
247 142   0   8   0   0  2  0
248   4   0   0   7   0  0  0
249 142   0   6   0   0  1  0
250   4   0   0   7   0  0  0
251 142   0   8   0   0  2  0
252   4   0   0   7   0  0  0
253 142   0   6   0   0  1  0
254   4   0   0   7   0  0  0
255 142   0   8   0   0  2  0
256   4   0   0   7   0  0  0
257 142   0   6   0   0  1  0
258   4   0   0   7   0  0  0
259 142   0   8   0   0  2  0
260   4   0   0   7   0  0  0
261 142   0   6   0   0  1  0
262   4   0   0   7   0  0  0
263 142   0   8   0   0  2  0
264  62   0   9  10   0  0  0
265 130   0   0   0   3  0  0
266 399870   0   0   0   0  0  0

# Format of RF events:
# id amplitude mag_id phase_id time_shape_id delay freq phase
# ..        Hz   ....     ....          ....    us   Hz   rad
[RF]
1       342.29 2 3 4 100 0 0
2      895.738 7 3 4 100 0 0

# Format of arbitrary gradients:
#   time_shape_id of 0 means default timing (stepping with grad_raster starting at 1/2 of grad_raster)
# id amplitude amp_shape_id time_shape_id delay
# ..      Hz/m       ..         ..          us
[GRADIENTS]
1       210756 1 0 0
2      -934565 5 0 0
3       930307 6 0 0
4      -816924 8 0 0
5      -820551 9 0 0
6       384633 10 0 0
7       192317 11 0 0
8      -384633 10 0 0
9       816924 8 0 0
10       814141 12 0 0

# Format of ADC events:
# id num dwell delay freq phase
# ..  ..    ns    us   Hz   rad
[ADC]
1 128 10000 70 0 0
2 128 10000 70 0 0

# Sequence Shapes
[SHAPES]

shape_id 1
num_samples 276
0
0.1
0.1
8
0
0
253
-0.1
-0.1
8

shape_id 2
num_samples 128
3.11854168e-18
0.00127709713
0.00263619803
0.00412096129
0.00577427533
0.00763644759
0.00974335716
0.0121246124
0.0148017555
0.0177865559
0.0210794356
0.0246680655
0.0285261709
0.0326125821
0.0368705593
0.0412274199
0.0455944881
0.049867383
0.0539266529
0.0576387606
0.060857414
0.0634252303
0.0651757189
0.0659355557
0.0655271198
0.0637712562
0.0604902216
0.0555107692
0.0486673194
0.0398051656
0.028783659
0.0154793152
0.00021121304
0.018368353
0.0390470728
0.0622746373
0.0880487054
0.116335811
0.147070264
0.180153504
0.215453928
0.252807202
0.292017081
0.332856714
0.375070447
0.418376095
0.462467653
0.507018435
0.551684572
0.596108847
0.639924798
0.682761038
0.72424573
0.764011151
0.801698272
0.836961294
0.869472065
0.898924318
0.925037648
0.947561196
0.96627695
0.981002636
0.991594142
0.997947446
1
0.997731574
0.991164526
0.9803635
0.965434562
0.946523782
0.923815282
0.897528787
0.867916719
0.835260863
0.799868678
0.762069301
0.722209299
0.680648243
0.637754172
0.593899008
0.549453996
0.504785237
0.460249377
0.416189514
0.372931381
0.330779861
0.290015875
0.250893686
0.213638654
0.178445456
0.145476804
0.114862652
0.08669991
0.0610526363
0.0379527113
0.0174009566
0.000631326021
0.0162004336
0.0293880021
0.0402984533
0.0490562018
0.0558026742
0.0606931964
0.0638938077
0.0655780545
0.0659238229
0.0651102599
0.0633148353
0.06071059
0.0574636108
0.0537307703
0.0496577599
0.0453774413
0.0410085329
0.0366546428
0.0324036509
0.028327439
0.0244819565
0.0209076103
0.017629953
0.0146606458
0.0119986645
0.00963171233
0.00753780233
0.00568696944
0.00404306915
0.00256562126
0.00121165629

shape_id 3
num_samples 128
0
0
126

shape_id 4
num_samples 128
10
20
20
125

shape_id 5
num_samples 52
0
0.0455
0.0454
0.0455
0.0454
0.0455
0.0454
0.0455
0.0454
0.0455
0.0454
0.0455
0.0455
0
0.0454
0.0455
0.0454
0.0455
0.0454
0.0455
0.0454
0.0455
0.0454
0.0455
0
0
5
-0.0455
-0.0454
-0.0455
-0.0454
-0.0455
-0.0454
-0.0455
-0.0454
-0.0455
-0.0454
-0.0455
-0.0455
0
-0.0454
-0.0455
-0.0454
-0.0455
-0.0454
-0.0455
-0.0454
-0.0455
-0.0454
-0.0455

shape_id 6
num_samples 130
0
0.0455
0.0454
0.0455
0.0454
0.0455
0.0454
0.0455
0.0454
0.0455
0.0454
0.0455
0.0455
0
0.0454
0.0455
0.0454
0.0455
0.0454
0.0455
0.0454
0.0455
0.0454
0.0455
0
0
83
-0.0455
-0.0454
-0.0455
-0.0454
-0.0455
-0.0454
-0.0455
-0.0454
-0.0455
-0.0454
-0.0455
-0.0455
0
-0.0454
-0.0455
-0.0454
-0.0455
-0.0454
-0.0455
-0.0454
-0.0455
-0.0454
-0.0455

shape_id 7
num_samples 128
3.1185456e-18
0.00127453224
0.0026150076
0.00404640679
0.0055884941
0.00725237491
0.00903728027
0.0109277615
0.0128914678
0.0148776647
0.0168166252
0.0186199974
0.0201822153
0.0213829799
0.0220907953
0.0221674984
0.0214736797
0.0198748468
0.0172481479
0.0134894341
0.00852041722
0.00229565689
0.00519089805
0.0139000901
0.023742723
0.0345759706
0.0462012445
0.0583637034
0.0707535436
0.0830091543
0.0947221685
0.105444376
0.114696404
0.121978009
0.126779769
0.128595897
0.126937869
0.1213485
0.111416086
0.0967882054
0.0771847626
0.0524098749
0.0223622072
0.0129565993
0.0534357194
0.0988514183
0.148866006
0.2030296
0.260784746
0.321473868
0.38434945
0.448586739
0.513298736
0.577553122
0.640390732
0.700845146
0.757962904
0.810823845
0.858561053
0.900379903
0.935575706
0.963549496
0.983821539
0.99604222
1
0.995626245
0.982996799
0.962330246
0.933982923
0.898440804
0.856308484
0.808295543
0.75520065
0.697893847
0.637297438
0.574366015
0.510066114
0.445356014
0.381166195
0.318380934
0.257821457
0.200231067
0.146262552
0.0964681428
0.0512921975
0.0110667268
0.0239902278
0.0537734105
0.0782864957
0.0976357634
0.112021567
0.121727911
0.1271105
0.128583644
0.126606432
0.121668583
0.114276384
0.104939095
0.0941561817
0.0824056914
0.0701340342
0.0577473882
0.0456048779
0.0340136183
0.0232256533
0.0134367573
0.0047870115
0.00263698648
0.00879846349
0.0137055855
0.0174055954
0.019978243
0.0215287824
0.0221808135
0.0220692302
0.0213335208
0.0201116368
0.018534614
0.01672209
0.0147788202
0.0127922499
0.0108311567
0.0089453338
0.0071662449
0.00550854641
0.00397234278
0.00254601672
0.00120946025

shape_id 8
num_samples 34
0
1
0
0
29
-1

shape_id 9
num_samples 32
0
1
0
0
27
-1

shape_id 10
num_samples 142
0
0.154973
0.1690054
0.1690054
3
0
0
127
-0.1690054
-0.1690054
3
-0.154973

shape_id 11
num_samples 4
0
1
1
0

shape_id 12
num_samples 62
0
1
0
0
57
-1


[SIGNATURE]
# This is the hash of the Pulseq file, calculated right before the [SIGNATURE] section was added
# It can be reproduced/verified with md5sum if the file trimmed to the position right above [SIGNATURE]
# The new line character preceding [SIGNATURE] BELONGS to the signature (and needs to be stripped away for recalculating/verification)
Type md5
Hash 2edd655ff28138dbfef7341d0d4dd728
