# Pulseq sequence file
# Created by PyPulseq

[VERSION]
major 1
minor 4
revision 0

[DEFINITIONS]
AdcRasterTime 1e-07 
BlockDurationRaster 1e-05 
EPI 1 
FOV 0.26 0.26 0.005 
GradientRasterTime 1e-05 
Name YARRA 
RadiofrequencyRasterTime 1e-06 
TotalDuration 520.08064 

# Format of blocks:
# NUM DUR RF  GX  GY  GZ  ADC  EXT
[BLOCKS]
   1 276   1   0   0   1  0  0
   2  52   0   0   0   2  0  0
   3 2940   0   0   0   0  0  0
   4 130   0   3   3   3  0  0
   5 276   2   0   0   1  0  0
   6 130   0   3   3   3  0  0
   7 2271   0   0   0   0  0  0
   8  48   0   4   5   0  0  0
   9 142   0   6   7   0  1  0
  10  48   0   4   5   0  0  0
  11 130   0   0   0   3  0  0
  12 399870   0   0   0   0  0  0
  13 276   1   0   0   1  0  0
  14  52   0   0   0   2  0  0
  15 2940   0   0   0   0  0  0
  16 130   0   3   3   3  0  0
  17 276   2   0   0   1  0  0
  18 130   0   3   3   3  0  0
  19 2271   0   0   0   0  0  0
  20  48   0   8   9   0  0  0
  21 142   0  10  11   0  1  0
  22  48   0   8   9   0  0  0
  23 130   0   0   0   3  0  0
  24 399870   0   0   0   0  0  0
  25 276   1   0   0   1  0  0
  26  52   0   0   0   2  0  0
  27 2940   0   0   0   0  0  0
  28 130   0   3   3   3  0  0
  29 276   2   0   0   1  0  0
  30 130   0   3   3   3  0  0
  31 2271   0   0   0   0  0  0
  32  48   0  12  13   0  0  0
  33 142   0  14  15   0  1  0
  34  48   0  12  13   0  0  0
  35 130   0   0   0   3  0  0
  36 399870   0   0   0   0  0  0
  37 276   1   0   0   1  0  0
  38  52   0   0   0   2  0  0
  39 2940   0   0   0   0  0  0
  40 130   0   3   3   3  0  0
  41 276   2   0   0   1  0  0
  42 130   0   3   3   3  0  0
  43 2271   0   0   0   0  0  0
  44  48   0  16  17   0  0  0
  45 142   0  18  19   0  1  0
  46  48   0  16  17   0  0  0
  47 130   0   0   0   3  0  0
  48 399870   0   0   0   0  0  0
  49 276   1   0   0   1  0  0
  50  52   0   0   0   2  0  0
  51 2940   0   0   0   0  0  0
  52 130   0   3   3   3  0  0
  53 276   2   0   0   1  0  0
  54 130   0   3   3   3  0  0
  55 2271   0   0   0   0  0  0
  56  48   0  20  21   0  0  0
  57 142   0  22  23   0  1  0
  58  48   0  20  21   0  0  0
  59 130   0   0   0   3  0  0
  60 399870   0   0   0   0  0  0
  61 276   1   0   0   1  0  0
  62  52   0   0   0   2  0  0
  63 2940   0   0   0   0  0  0
  64 130   0   3   3   3  0  0
  65 276   2   0   0   1  0  0
  66 130   0   3   3   3  0  0
  67 2271   0   0   0   0  0  0
  68  48   0  24  25   0  0  0
  69 142   0  26  27   0  1  0
  70  48   0  24  25   0  0  0
  71 130   0   0   0   3  0  0
  72 399870   0   0   0   0  0  0
  73 276   1   0   0   1  0  0
  74  52   0   0   0   2  0  0
  75 2940   0   0   0   0  0  0
  76 130   0   3   3   3  0  0
  77 276   2   0   0   1  0  0
  78 130   0   3   3   3  0  0
  79 2271   0   0   0   0  0  0
  80  48   0  28  29   0  0  0
  81 142   0  30  31   0  1  0
  82  48   0  28  29   0  0  0
  83 130   0   0   0   3  0  0
  84 399870   0   0   0   0  0  0
  85 276   1   0   0   1  0  0
  86  52   0   0   0   2  0  0
  87 2940   0   0   0   0  0  0
  88 130   0   3   3   3  0  0
  89 276   2   0   0   1  0  0
  90 130   0   3   3   3  0  0
  91 2271   0   0   0   0  0  0
  92  48   0  32  33   0  0  0
  93 142   0  34  35   0  1  0
  94  48   0  32  33   0  0  0
  95 130   0   0   0   3  0  0
  96 399870   0   0   0   0  0  0
  97 276   1   0   0   1  0  0
  98  52   0   0   0   2  0  0
  99 2940   0   0   0   0  0  0
 100 130   0   3   3   3  0  0
 101 276   2   0   0   1  0  0
 102 130   0   3   3   3  0  0
 103 2271   0   0   0   0  0  0
 104  48   0  36  37   0  0  0
 105 142   0  38  39   0  1  0
 106  48   0  36  37   0  0  0
 107 130   0   0   0   3  0  0
 108 399870   0   0   0   0  0  0
 109 276   1   0   0   1  0  0
 110  52   0   0   0   2  0  0
 111 2940   0   0   0   0  0  0
 112 130   0   3   3   3  0  0
 113 276   2   0   0   1  0  0
 114 130   0   3   3   3  0  0
 115 2271   0   0   0   0  0  0
 116  48   0  40  41   0  0  0
 117 142   0  42  43   0  1  0
 118  48   0  40  41   0  0  0
 119 130   0   0   0   3  0  0
 120 399870   0   0   0   0  0  0
 121 276   1   0   0   1  0  0
 122  52   0   0   0   2  0  0
 123 2940   0   0   0   0  0  0
 124 130   0   3   3   3  0  0
 125 276   2   0   0   1  0  0
 126 130   0   3   3   3  0  0
 127 2271   0   0   0   0  0  0
 128  48   0  44  45   0  0  0
 129 142   0  46  47   0  1  0
 130  48   0  44  45   0  0  0
 131 130   0   0   0   3  0  0
 132 399870   0   0   0   0  0  0
 133 276   1   0   0   1  0  0
 134  52   0   0   0   2  0  0
 135 2940   0   0   0   0  0  0
 136 130   0   3   3   3  0  0
 137 276   2   0   0   1  0  0
 138 130   0   3   3   3  0  0
 139 2271   0   0   0   0  0  0
 140  48   0  48  49   0  0  0
 141 142   0  50  51   0  1  0
 142  48   0  48  49   0  0  0
 143 130   0   0   0   3  0  0
 144 399870   0   0   0   0  0  0
 145 276   1   0   0   1  0  0
 146  52   0   0   0   2  0  0
 147 2940   0   0   0   0  0  0
 148 130   0   3   3   3  0  0
 149 276   2   0   0   1  0  0
 150 130   0   3   3   3  0  0
 151 2271   0   0   0   0  0  0
 152  48   0  52  53   0  0  0
 153 142   0  54  55   0  1  0
 154  48   0  52  53   0  0  0
 155 130   0   0   0   3  0  0
 156 399870   0   0   0   0  0  0
 157 276   1   0   0   1  0  0
 158  52   0   0   0   2  0  0
 159 2940   0   0   0   0  0  0
 160 130   0   3   3   3  0  0
 161 276   2   0   0   1  0  0
 162 130   0   3   3   3  0  0
 163 2271   0   0   0   0  0  0
 164  48   0  56  57   0  0  0
 165 142   0  58  59   0  1  0
 166  48   0  56  57   0  0  0
 167 130   0   0   0   3  0  0
 168 399870   0   0   0   0  0  0
 169 276   1   0   0   1  0  0
 170  52   0   0   0   2  0  0
 171 2940   0   0   0   0  0  0
 172 130   0   3   3   3  0  0
 173 276   2   0   0   1  0  0
 174 130   0   3   3   3  0  0
 175 2271   0   0   0   0  0  0
 176  48   0  60  61   0  0  0
 177 142   0  62  63   0  1  0
 178  48   0  60  61   0  0  0
 179 130   0   0   0   3  0  0
 180 399870   0   0   0   0  0  0
 181 276   1   0   0   1  0  0
 182  52   0   0   0   2  0  0
 183 2940   0   0   0   0  0  0
 184 130   0   3   3   3  0  0
 185 276   2   0   0   1  0  0
 186 130   0   3   3   3  0  0
 187 2271   0   0   0   0  0  0
 188  48   0  64  65   0  0  0
 189 142   0  66  67   0  1  0
 190  48   0  64  65   0  0  0
 191 130   0   0   0   3  0  0
 192 399870   0   0   0   0  0  0
 193 276   1   0   0   1  0  0
 194  52   0   0   0   2  0  0
 195 2940   0   0   0   0  0  0
 196 130   0   3   3   3  0  0
 197 276   2   0   0   1  0  0
 198 130   0   3   3   3  0  0
 199 2271   0   0   0   0  0  0
 200  48   0  68  69   0  0  0
 201 142   0  70  71   0  1  0
 202  48   0  68  69   0  0  0
 203 130   0   0   0   3  0  0
 204 399870   0   0   0   0  0  0
 205 276   1   0   0   1  0  0
 206  52   0   0   0   2  0  0
 207 2940   0   0   0   0  0  0
 208 130   0   3   3   3  0  0
 209 276   2   0   0   1  0  0
 210 130   0   3   3   3  0  0
 211 2271   0   0   0   0  0  0
 212  48   0  72  73   0  0  0
 213 142   0  74  75   0  1  0
 214  48   0  72  73   0  0  0
 215 130   0   0   0   3  0  0
 216 399870   0   0   0   0  0  0
 217 276   1   0   0   1  0  0
 218  52   0   0   0   2  0  0
 219 2940   0   0   0   0  0  0
 220 130   0   3   3   3  0  0
 221 276   2   0   0   1  0  0
 222 130   0   3   3   3  0  0
 223 2271   0   0   0   0  0  0
 224  48   0  76  77   0  0  0
 225 142   0  78  79   0  1  0
 226  48   0  76  77   0  0  0
 227 130   0   0   0   3  0  0
 228 399870   0   0   0   0  0  0
 229 276   1   0   0   1  0  0
 230  52   0   0   0   2  0  0
 231 2940   0   0   0   0  0  0
 232 130   0   3   3   3  0  0
 233 276   2   0   0   1  0  0
 234 130   0   3   3   3  0  0
 235 2271   0   0   0   0  0  0
 236  48   0  80  81   0  0  0
 237 142   0  82  83   0  1  0
 238  48   0  80  81   0  0  0
 239 130   0   0   0   3  0  0
 240 399870   0   0   0   0  0  0
 241 276   1   0   0   1  0  0
 242  52   0   0   0   2  0  0
 243 2940   0   0   0   0  0  0
 244 130   0   3   3   3  0  0
 245 276   2   0   0   1  0  0
 246 130   0   3   3   3  0  0
 247 2271   0   0   0   0  0  0
 248  48   0  84  85   0  0  0
 249 142   0  86  87   0  1  0
 250  48   0  84  85   0  0  0
 251 130   0   0   0   3  0  0
 252 399870   0   0   0   0  0  0
 253 276   1   0   0   1  0  0
 254  52   0   0   0   2  0  0
 255 2940   0   0   0   0  0  0
 256 130   0   3   3   3  0  0
 257 276   2   0   0   1  0  0
 258 130   0   3   3   3  0  0
 259 2271   0   0   0   0  0  0
 260  48   0  88  89   0  0  0
 261 142   0  90  91   0  1  0
 262  48   0  88  89   0  0  0
 263 130   0   0   0   3  0  0
 264 399870   0   0   0   0  0  0
 265 276   1   0   0   1  0  0
 266  52   0   0   0   2  0  0
 267 2940   0   0   0   0  0  0
 268 130   0   3   3   3  0  0
 269 276   2   0   0   1  0  0
 270 130   0   3   3   3  0  0
 271 2271   0   0   0   0  0  0
 272  48   0  92  93   0  0  0
 273 142   0  94  95   0  1  0
 274  48   0  92  93   0  0  0
 275 130   0   0   0   3  0  0
 276 399870   0   0   0   0  0  0
 277 276   1   0   0   1  0  0
 278  52   0   0   0   2  0  0
 279 2940   0   0   0   0  0  0
 280 130   0   3   3   3  0  0
 281 276   2   0   0   1  0  0
 282 130   0   3   3   3  0  0
 283 2271   0   0   0   0  0  0
 284  48   0  96  97   0  0  0
 285 142   0  98  99   0  1  0
 286  48   0  96  97   0  0  0
 287 130   0   0   0   3  0  0
 288 399870   0   0   0   0  0  0
 289 276   1   0   0   1  0  0
 290  52   0   0   0   2  0  0
 291 2940   0   0   0   0  0  0
 292 130   0   3   3   3  0  0
 293 276   2   0   0   1  0  0
 294 130   0   3   3   3  0  0
 295 2271   0   0   0   0  0  0
 296  48   0 100 101   0  0  0
 297 142   0 102 103   0  1  0
 298  48   0 100 101   0  0  0
 299 130   0   0   0   3  0  0
 300 399870   0   0   0   0  0  0
 301 276   1   0   0   1  0  0
 302  52   0   0   0   2  0  0
 303 2940   0   0   0   0  0  0
 304 130   0   3   3   3  0  0
 305 276   2   0   0   1  0  0
 306 130   0   3   3   3  0  0
 307 2271   0   0   0   0  0  0
[RF]
1       342.29 2 3 4 100 0 0
2      895.738 7 3 4 100 0 0

# Format of arbitrary gradients:
#   time_shape_id of 0 means default timing (stepping with grad_raster starting at 1/2 of grad_raster)
# id amplitude amp_shape_id time_shape_id delay
# ..      Hz/m       ..         ..          us
[GRADIENTS]
1       210756 1 0 0
2      -934565 5 0 0
3       930307 6 0 0
4      -804905 8 0 0
5            0 9 0 0
6       384633 10 0 0
7            0 11 0 0
8       291728 8 0 0
9      -750177 8 0 0
10      -139406 10 0 0
11       358481 10 0 0
12       593438 8 0 0
13       543786 8 0 0
14      -283582 10 0 0
15      -259855 10 0 0
16      -721897 8 0 0
17       356000 8 0 0
18       344967 10 0 0
19      -170119 10 0 0
20     -70152.1 8 0 0
21      -801842 8 0 0
22        33523 10 0 0
23       383170 10 0 0
24       772749 8 0 0
25       225236 8 0 0
26      -369267 10 0 0
27      -107632 10 0 0
28      -489995 8 0 0
29       638574 8 0 0
30       234150 10 0 0
31      -305150 10 0 0
32      -417563 8 0 0
33      -688123 8 0 0
34       199538 10 0 0
35       328828 10 0 0
36       792676 8 0 0
37      -139770 8 0 0
38      -378790 10 0 0
39      66790.9 10 0 0
40      -157029 8 0 0
41       789439 8 0 0
42      75038.3 10 0 0
43      -377243 10 0 0
44      -678850 8 0 0
45      -432475 8 0 0
46       324397 10 0 0
47       206663 10 0 0
48       649111 8 0 0
49      -475948 8 0 0
50      -310186 10 0 0
51       227437 10 0 0
52       208325 8 0 0
53       777478 8 0 0
54     -99550.5 10 0 0
55      -371527 10 0 0
56      -800121 8 0 0
57     -87627.5 8 0 0
58       382347 10 0 0
59      41873.8 10 0 0
60       371664 8 0 0
61      -713959 8 0 0
62      -177604 10 0 0
63       341174 10 0 0
64       530710 8 0 0
65       605159 8 0 0
66      -253606 10 0 0
67      -289183 10 0 0
68      -756363 8 0 0
69       275294 8 0 0
70       361437 10 0 0
71      -131552 10 0 0
72      17558.9 8 0 0
73      -804713 8 0 0
74     -8390.73 10 0 0
75       384542 10 0 0
76       743635 8 0 0
77       308024 8 0 0
78      -355355 10 0 0
79      -147193 10 0 0
80      -556602 8 0 0
81       581434 8 0 0
82       265979 10 0 0
83      -277845 10 0 0
84      -340167 8 0 0
85      -729491 8 0 0
86       162553 10 0 0
87       348596 10 0 0
88       803181 8 0 0
89     -52643.3 8 0 0
90      -383810 10 0 0
91      25156.2 10 0 0
92      -242039 8 0 0
93       767651 8 0 0
94       115662 10 0 0
95      -366831 10 0 0
96      -627733 8 0 0
97      -503809 8 0 0
98       299970 10 0 0
99       240751 10 0 0
100       697068 8 0 0
101      -402452 8 0 0
102      -333102 10 0 0
103       192317 10 0 0
104       122445 8 0 0
105       795537 8 0 0
106     -58511.7 10 0 0
107      -380157 10 0 0
108      -785825 8 0 0
109      -174213 8 0 0
110       375516 10 0 0
111      83249.9 10 0 0
112       447181 8 0 0
113      -669254 8 0 0
114      -213691 10 0 0
115       319811 10 0 0
116       461674 8 0 0
117       659339 8 0 0
118      -220617 10 0 0
119      -315073 10 0 0
120      -781838 8 0 0
121       191314 8 0 0
122       373611 10 0 0
123     -91421.9 10 0 0
124       105061 8 0 0
125      -798019 8 0 0
126     -50204.7 10 0 0
127       381343 10 0 0
128       705681 8 0 0
129       387150 8 0 0
130      -337218 10 0 0
131      -185004 10 0 0
132      -616593 8 0 0
133       517383 8 0 0
134       294646 10 0 0
135      -247238 10 0 0
136      -258728 8 0 0
137      -762188 8 0 0
138       123636 10 0 0
139       364221 10 0 0
140       804139 8 0 0
141      35109.4 8 0 0
142      -384267 10 0 0
143     -16777.5 10 0 0
144      -324173 8 0 0
145       736738 8 0 0
146       154910 10 0 0
147      -352059 10 0 0
148      -569154 8 0 0
149      -569154 8 0 0
150       271977 10 0 0
151       271977 10 0 0
152       736738 8 0 0
153      -324173 8 0 0
154      -352059 10 0 0
155       154910 10 0 0
156      35109.4 8 0 0
157       804139 8 0 0
158     -16777.5 10 0 0
159      -384267 10 0 0
160      -762188 8 0 0
161      -258728 8 0 0
162       364221 10 0 0
163       123636 10 0 0
164       517383 8 0 0
165      -616593 8 0 0
166      -247238 10 0 0
167       294646 10 0 0
168       387150 8 0 0
169       705681 8 0 0
170      -185004 10 0 0
171      -337218 10 0 0
172      -798019 8 0 0
173       105061 8 0 0
174       381343 10 0 0
175     -50204.7 10 0 0
176       191314 8 0 0
177      -781838 8 0 0
178     -91421.9 10 0 0
179       373611 10 0 0
180       659339 8 0 0
181       461674 8 0 0
182      -315073 10 0 0
183      -220617 10 0 0
184      -669254 8 0 0
185       447181 8 0 0
186       319811 10 0 0
187      -213691 10 0 0
188      -174213 8 0 0
189      -785825 8 0 0
190      83249.9 10 0 0
191       375516 10 0 0
192       795537 8 0 0
193       122445 8 0 0
194      -380157 10 0 0
195     -58511.7 10 0 0
196      -402452 8 0 0
197       697068 8 0 0
198       192317 10 0 0
199      -333102 10 0 0
200      -503809 8 0 0
201      -627733 8 0 0
202       240751 10 0 0
203       299970 10 0 0
204       767651 8 0 0
205      -242039 8 0 0
206      -366831 10 0 0
207       115662 10 0 0
208     -52643.3 8 0 0
209       803181 8 0 0
210      25156.2 10 0 0
211      -383810 10 0 0
212      -729491 8 0 0
213      -340167 8 0 0
214       348596 10 0 0
215       162553 10 0 0
216       581434 8 0 0
217      -556602 8 0 0
218      -277845 10 0 0
219       265979 10 0 0
220       308024 8 0 0
221       743635 8 0 0
222      -147193 10 0 0
223      -355355 10 0 0
224      -804713 8 0 0
225      17558.9 8 0 0
226       384542 10 0 0
227     -8390.73 10 0 0
228       275294 8 0 0
229      -756363 8 0 0
230      -131552 10 0 0
231       361437 10 0 0
232       605159 8 0 0
233       530710 8 0 0
234      -289183 10 0 0
235      -253606 10 0 0
236      -713959 8 0 0
237       371664 8 0 0
238       341174 10 0 0
239      -177604 10 0 0
240     -87627.5 8 0 0
241      -800121 8 0 0
242      41873.8 10 0 0
243       382347 10 0 0
244       777478 8 0 0
245       208325 8 0 0
246      -371527 10 0 0
247     -99550.5 10 0 0
248      -475948 8 0 0
249       649111 8 0 0
250       227437 10 0 0
251      -310186 10 0 0
252      -432475 8 0 0
253      -678850 8 0 0
254       206663 10 0 0
255       324397 10 0 0
256       789439 8 0 0
257      -157029 8 0 0
258      -377243 10 0 0
259      75038.3 10 0 0
260      -139770 8 0 0
261       792676 8 0 0
262      66790.9 10 0 0
263      -378790 10 0 0
264      -688123 8 0 0
265      -417563 8 0 0
266       328828 10 0 0
267       199538 10 0 0
268       638574 8 0 0
269      -489995 8 0 0
270      -305150 10 0 0
271       234150 10 0 0
272       225236 8 0 0
273       772749 8 0 0
274      -107632 10 0 0
275      -369267 10 0 0
276      -801842 8 0 0
277     -70152.1 8 0 0
278       383170 10 0 0
279        33523 10 0 0
280       356000 8 0 0
281      -721897 8 0 0
282      -170119 10 0 0
283       344967 10 0 0
284       543786 8 0 0
285       593438 8 0 0
286      -259855 10 0 0
287      -283582 10 0 0
288      -750177 8 0 0
289       291728 8 0 0
290       358481 10 0 0
291      -139406 10 0 0
292 -2.01142e-08 8 0 0
293  9.61184e-09 10 0 0
294       750177 8 0 0
295       291728 8 0 0
296      -358481 10 0 0
297      -139406 10 0 0
298      -543786 8 0 0
299       593438 8 0 0
300       259855 10 0 0
301      -283582 10 0 0
302      -356000 8 0 0
303      -721897 8 0 0
304       170119 10 0 0
305       344967 10 0 0
306       801842 8 0 0
307     -70152.1 8 0 0
308      -383170 10 0 0
309        33523 10 0 0
310      -225236 8 0 0
311       772749 8 0 0
312       107632 10 0 0
313      -369267 10 0 0
314      -638574 8 0 0
315      -489995 8 0 0
316       305150 10 0 0
317       234150 10 0 0
318       688123 8 0 0
319      -417563 8 0 0
320      -328828 10 0 0
321       199538 10 0 0
322       139770 8 0 0
323       792676 8 0 0
324     -66790.9 10 0 0
325      -378790 10 0 0
326      -789439 8 0 0
327      -157029 8 0 0
328       377243 10 0 0
329      75038.3 10 0 0
330       432475 8 0 0
331      -678850 8 0 0
332      -206663 10 0 0
333       324397 10 0 0
334       475948 8 0 0
335       649111 8 0 0
336      -227437 10 0 0
337      -310186 10 0 0
338      -777478 8 0 0
339       208325 8 0 0
340       371527 10 0 0
341     -99550.5 10 0 0
342      87627.5 8 0 0
343      -800121 8 0 0
344     -41873.8 10 0 0
345       382347 10 0 0
346       713959 8 0 0
347       371664 8 0 0
348      -341174 10 0 0
349      -177604 10 0 0
350      -605159 8 0 0
351       530710 8 0 0
352       289183 10 0 0
353      -253606 10 0 0
354      -275294 8 0 0
355      -756363 8 0 0
356       131552 10 0 0
357       361437 10 0 0
358       804713 8 0 0
359      17558.9 8 0 0
360      -384542 10 0 0
361     -8390.73 10 0 0
362      -308024 8 0 0
363       743635 8 0 0
364       147193 10 0 0
365      -355355 10 0 0
366      -581434 8 0 0
367      -556602 8 0 0
368       277845 10 0 0
369       265979 10 0 0
370       729491 8 0 0
371      -340167 8 0 0
372      -348596 10 0 0
373       162553 10 0 0
374      52643.3 8 0 0
375       803181 8 0 0
376     -25156.2 10 0 0
377      -383810 10 0 0
378      -767651 8 0 0
379      -242039 8 0 0
380       366831 10 0 0
381       115662 10 0 0
382       503809 8 0 0
383      -627733 8 0 0
384      -240751 10 0 0
385       299970 10 0 0
386       402452 8 0 0
387       697068 8 0 0
388      -192317 10 0 0
389      -333102 10 0 0
390      -795537 8 0 0
391       122445 8 0 0
392       380157 10 0 0
393     -58511.7 10 0 0
394       174213 8 0 0
395      -785825 8 0 0
396     -83249.9 10 0 0
397       375516 10 0 0
398       669254 8 0 0
399       447181 8 0 0
400      -319811 10 0 0
401      -213691 10 0 0
402      -659339 8 0 0
403       461674 8 0 0
404       315073 10 0 0
405      -220617 10 0 0
406      -191314 8 0 0
407      -781838 8 0 0
408      91421.9 10 0 0
409       373611 10 0 0
410       798019 8 0 0
411       105061 8 0 0
412      -381343 10 0 0
413     -50204.7 10 0 0
414      -387150 8 0 0
415       705681 8 0 0
416       185004 10 0 0
417      -337218 10 0 0
418      -517383 8 0 0
419      -616593 8 0 0
420       247238 10 0 0
421       294646 10 0 0
422       762188 8 0 0
423      -258728 8 0 0
424      -364221 10 0 0
425       123636 10 0 0
426     -35109.4 8 0 0
427       804139 8 0 0
428      16777.5 10 0 0
429      -384267 10 0 0
430      -736738 8 0 0
431      -324173 8 0 0
432       352059 10 0 0
433       154910 10 0 0
434       569154 8 0 0
435      -569154 8 0 0
436      -271977 10 0 0
437       271977 10 0 0
438       324173 8 0 0
439       736738 8 0 0
440      -154910 10 0 0
441      -352059 10 0 0
442      -804139 8 0 0
443      35109.4 8 0 0
444       384267 10 0 0
445     -16777.5 10 0 0
446       258728 8 0 0
447      -762188 8 0 0
448      -123636 10 0 0
449       364221 10 0 0
450       616593 8 0 0
451       517383 8 0 0
452      -294646 10 0 0
453      -247238 10 0 0
454      -705681 8 0 0
455       387150 8 0 0
456       337218 10 0 0
457      -185004 10 0 0
458      -105061 8 0 0
459      -798019 8 0 0
460      50204.7 10 0 0
461       381343 10 0 0
462       781838 8 0 0
463       191314 8 0 0
464      -373611 10 0 0
465     -91421.9 10 0 0
466      -461674 8 0 0
467       659339 8 0 0
468       220617 10 0 0
469      -315073 10 0 0
470      -447181 8 0 0
471      -669254 8 0 0
472       213691 10 0 0
473       319811 10 0 0
474       785825 8 0 0
475      -174213 8 0 0
476      -375516 10 0 0
477      83249.9 10 0 0
478      -122445 8 0 0
479       795537 8 0 0
480      58511.7 10 0 0
481      -380157 10 0 0
482      -697068 8 0 0
483      -402452 8 0 0
484       333102 10 0 0
485       192317 10 0 0
486       627733 8 0 0
487      -503809 8 0 0
488      -299970 10 0 0
489       240751 10 0 0
490       242039 8 0 0
491       767651 8 0 0
492      -115662 10 0 0
493      -366831 10 0 0
494      -803181 8 0 0
495     -52643.3 8 0 0
496       383810 10 0 0
497      25156.2 10 0 0
498       340167 8 0 0
499      -729491 8 0 0
500      -162553 10 0 0
501       348596 10 0 0
502       556602 8 0 0
503       581434 8 0 0
504      -265979 10 0 0
505      -277845 10 0 0
506      -743635 8 0 0
507       308024 8 0 0
508       355355 10 0 0
509      -147193 10 0 0
510     -17558.9 8 0 0
511      -804713 8 0 0
512      8390.73 10 0 0
513       384542 10 0 0

# Format of ADC events:
# id num dwell delay freq phase
# ..  ..    ns    us   Hz   rad
[ADC]
1 128 10000 70 0 0

# Sequence Shapes
[SHAPES]

shape_id 1
num_samples 276
0
0.1
0.1
8
0
0
253
-0.1
-0.1
8

shape_id 2
num_samples 128
3.11854168e-18
0.00127709713
0.00263619803
0.00412096129
0.00577427533
0.00763644759
0.00974335716
0.0121246124
0.0148017555
0.0177865559
0.0210794356
0.0246680655
0.0285261709
0.0326125821
0.0368705593
0.0412274199
0.0455944881
0.049867383
0.0539266529
0.0576387606
0.060857414
0.0634252303
0.0651757189
0.0659355557
0.0655271198
0.0637712562
0.0604902216
0.0555107692
0.0486673194
0.0398051656
0.028783659
0.0154793152
0.00021121304
0.018368353
0.0390470728
0.0622746373
0.0880487054
0.116335811
0.147070264
0.180153504
0.215453928
0.252807202
0.292017081
0.332856714
0.375070447
0.418376095
0.462467653
0.507018435
0.551684572
0.596108847
0.639924798
0.682761038
0.72424573
0.764011151
0.801698272
0.836961294
0.869472065
0.898924318
0.925037648
0.947561196
0.96627695
0.981002636
0.991594142
0.997947446
1
0.997731574
0.991164526
0.9803635
0.965434562
0.946523782
0.923815282
0.897528787
0.867916719
0.835260863
0.799868678
0.762069301
0.722209299
0.680648243
0.637754172
0.593899008
0.549453996
0.504785237
0.460249377
0.416189514
0.372931381
0.330779861
0.290015875
0.250893686
0.213638654
0.178445456
0.145476804
0.114862652
0.08669991
0.0610526363
0.0379527113
0.0174009566
0.000631326021
0.0162004336
0.0293880021
0.0402984533
0.0490562018
0.0558026742
0.0606931964
0.0638938077
0.0655780545
0.0659238229
0.0651102599
0.0633148353
0.06071059
0.0574636108
0.0537307703
0.0496577599
0.0453774413
0.0410085329
0.0366546428
0.0324036509
0.028327439
0.0244819565
0.0209076103
0.017629953
0.0146606458
0.0119986645
0.00963171233
0.00753780233
0.00568696944
0.00404306915
0.00256562126
0.00121165629

shape_id 3
num_samples 128
0
0
126

shape_id 4
num_samples 128
10
20
20
125

shape_id 5
num_samples 52
0
0.0455
0.0454
0.0455
0.0454
0.0455
0.0454
0.0455
0.0454
0.0455
0.0454
0.0455
0.0455
0
0.0454
0.0455
0.0454
0.0455
0.0454
0.0455
0.0454
0.0455
0.0454
0.0455
0
0
5
-0.0455
-0.0454
-0.0455
-0.0454
-0.0455
-0.0454
-0.0455
-0.0454
-0.0455
-0.0454
-0.0455
-0.0455
0
-0.0454
-0.0455
-0.0454
-0.0455
-0.0454
-0.0455
-0.0454
-0.0455
-0.0454
-0.0455

shape_id 6
num_samples 130
0
0.0455
0.0454
0.0455
0.0454
0.0455
0.0454
0.0455
0.0454
0.0455
0.0454
0.0455
0.0455
0
0.0454
0.0455
0.0454
0.0455
0.0454
0.0455
0.0454
0.0455
0.0454
0.0455
0
0
83
-0.0455
-0.0454
-0.0455
-0.0454
-0.0455
-0.0454
-0.0455
-0.0454
-0.0455
-0.0454
-0.0455
-0.0455
0
-0.0454
-0.0455
-0.0454
-0.0455
-0.0454
-0.0455
-0.0454
-0.0455
-0.0454
-0.0455

shape_id 7
num_samples 128
3.1185456e-18
0.00127453224
0.0026150076
0.00404640679
0.0055884941
0.00725237491
0.00903728027
0.0109277615
0.0128914678
0.0148776647
0.0168166252
0.0186199974
0.0201822153
0.0213829799
0.0220907953
0.0221674984
0.0214736797
0.0198748468
0.0172481479
0.0134894341
0.00852041722
0.00229565689
0.00519089805
0.0139000901
0.023742723
0.0345759706
0.0462012445
0.0583637034
0.0707535436
0.0830091543
0.0947221685
0.105444376
0.114696404
0.121978009
0.126779769
0.128595897
0.126937869
0.1213485
0.111416086
0.0967882054
0.0771847626
0.0524098749
0.0223622072
0.0129565993
0.0534357194
0.0988514183
0.148866006
0.2030296
0.260784746
0.321473868
0.38434945
0.448586739
0.513298736
0.577553122
0.640390732
0.700845146
0.757962904
0.810823845
0.858561053
0.900379903
0.935575706
0.963549496
0.983821539
0.99604222
1
0.995626245
0.982996799
0.962330246
0.933982923
0.898440804
0.856308484
0.808295543
0.75520065
0.697893847
0.637297438
0.574366015
0.510066114
0.445356014
0.381166195
0.318380934
0.257821457
0.200231067
0.146262552
0.0964681428
0.0512921975
0.0110667268
0.0239902278
0.0537734105
0.0782864957
0.0976357634
0.112021567
0.121727911
0.1271105
0.128583644
0.126606432
0.121668583
0.114276384
0.104939095
0.0941561817
0.0824056914
0.0701340342
0.0577473882
0.0456048779
0.0340136183
0.0232256533
0.0134367573
0.0047870115
0.00263698648
0.00879846349
0.0137055855
0.0174055954
0.019978243
0.0215287824
0.0221808135
0.0220692302
0.0213335208
0.0201116368
0.018534614
0.01672209
0.0147788202
0.0127922499
0.0108311567
0.0089453338
0.0071662449
0.00550854641
0.00397234278
0.00254601672
0.00120946025

shape_id 8
num_samples 48
0
0.0666667
0.0666666
0.0666667
0.0666667
0
0.0666666
0.0666667
0.0666667
0
0.0666666
0.0666667
0.0666667
0
0.0666666
0.0666667
0.0666667
0
0.0666666
0.0666667
0
0
15
-0.0666667
-0.0666666
-0.0666667
-0.0666667
0
-0.0666666
-0.0666667
-0.0666667
0
-0.0666666
-0.0666667
-0.0666667
0
-0.0666666
-0.0666667
-0.0666667
0
-0.0666666
-0.0666667

shape_id 9
num_samples 48
0
0
46

shape_id 10
num_samples 142
0
0.154973
0.1690054
0.1690054
3
0
0
127
-0.1690054
-0.1690054
3
-0.154973

shape_id 11
num_samples 142
0
0
140


[SIGNATURE]
# This is the hash of the Pulseq file, calculated right before the [SIGNATURE] section was added
# It can be reproduced/verified with md5sum if the file trimmed to the position right above [SIGNATURE]
# The new line character preceding [SIGNATURE] BELONGS to the signature (and needs to be stripped away for recalculating/verification)
Type md5
Hash 317bcaab91eae845b03d4141fe64cad9
